50.650002 54.548660
51.325001 54.606274
51.650002 54.747272
49.674999 54.751225
45.299999 54.605675
40.025002 54.449959
37.924999 53.891006
39.299999 53.680965
42.174999 53.478195
45.250000 53.528126
47.250000 53.465603
47.700001 53.370495
48.000000 53.301083
47.575001 53.200939
47.575001 52.830978
47.450001 52.907322
47.400002 53.012516
47.950001 53.237732
48.400002 53.253662
49.625000 53.364246
49.775002 53.444954
50.299999 53.800739
52.224998 53.763527
55.700001 53.785851
60.500000 53.901104
63.424999 53.935738
62.674999 54.158928
59.150002 54.321823
54.700001 54.193325
50.400002 53.901615
45.650002 53.787674
42.250000 53.902431
41.325001 53.837746
42.625000 53.691582
44.525002 53.733341
46.099998 53.615376
46.500000 53.628242
46.700001 53.538673
46.799999 53.225906
46.825001 53.195553
46.974998 53.024963
46.924999 52.949936
47.250000 52.895180
47.625000 53.102608
48.950001 53.155041
50.375000 52.945919
50.825001 52.397457
51.025002 52.689873
50.974998 52.952774
50.150002 53.095165
50.150002 53.149609
50.150002 53.783096
50.250000 53.849609
50.299999 53.848675
50.075001 53.600601
49.849998 53.469021
49.349998 53.521423
49.000000 53.411243
48.924999 53.231865
48.625000 53.100945
48.575001 53.153828
48.200001 53.043991
48.299999 53.062778
48.000000 53.076496
47.900002 52.987549
47.974998 53.120544
47.849998 53.168137
47.875000 53.153393
48.049999 53.192112
47.750000 53.121407
48.625000 52.970844
49.700001 53.058876
50.825001 53.073650
51.250000 53.232868
51.025002 53.398552
51.700001 53.717392
53.125000 54.049049
53.950001 54.043716
53.799999 54.237743
52.500000 54.329872
51.125000 54.199192
50.349998 54.252254
49.549999 54.290985
49.299999 54.269768
48.724998 54.155327
48.750000 54.319199
48.349998 54.042965
47.974998 53.890839
47.775002 53.829285
46.924999 53.734882
47.025002 53.665985
46.799999 53.417786
47.099998 53.434555
47.424999 53.199390
47.849998 53.275166
48.150002 53.280983
48.150002 53.136795
48.500000 53.229477
48.799999 53.198158
49.775002 53.323742
52.000000 53.514351
53.400002 53.603992
54.650002 53.867329
53.924999 53.416298
53.400002 53.680859
52.900002 53.873955
52.250000 53.965405
52.250000 54.131104
52.825001 54.054123
52.650002 53.800022
51.724998 53.763000
49.599998 53.834946
47.400002 53.739017
46.025002 53.619526
45.424999 53.482834
46.200001 53.284111
46.900002 53.336990
46.924999 53.375584
47.424999 53.106876
47.174999 53.306595
47.224998 53.452358
47.450001 53.459789
47.400002 53.415730
47.450001 53.433056
47.099998 53.445698
47.125000 53.158051
46.900002 53.244984
47.299999 53.209476
48.875000 53.430954
51.125000 53.691566
52.950001 53.634369
53.200001 53.691582
52.974998 53.733341
52.349998 53.912251
51.349998 53.844921
50.825001 53.894733
50.674999 54.079525
50.849998 54.065956
50.025002 54.056057
48.375000 53.949867
47.075001 54.020805
46.424999 53.676746
45.974998 53.524597
46.424999 53.413551
46.724998 53.283020
47.075001 53.336197
47.174999 53.325527
47.224998 53.268257
47.224998 53.226460
47.500000 53.097004
47.174999 53.002518
47.424999 53.032513
47.224998 53.054409
47.000000 53.317780
46.599998 53.411045
47.375000 53.627552
49.650002 53.835049
52.275002 53.739090
54.474998 53.965935
55.625000 53.933575
55.900002 54.008915
56.125000 54.113377
57.075001 54.338062
57.549999 54.452564
57.200001 54.536137
54.950001 54.448692
51.674999 54.384872
47.174999 54.338291
43.125000 54.155857
41.674999 53.923752
42.375000 53.952267
43.150002 53.775162
44.825001 53.596424
45.724998 53.317532
46.750000 53.311905
46.750000 53.357281
46.724998 53.291435
46.400002 53.243382
46.224998 53.158829
46.375000 53.196072
46.849998 53.223259
47.224998 53.193619
47.025002 52.974068
47.299999 53.110710
47.724998 53.210438
49.075001 53.233746
50.250000 53.250755
51.150002 53.609520
52.000000 53.722927
52.125000 53.706738
52.200001 53.892845
52.974998 54.078144
55.099998 54.213390
56.625000 54.213139
57.450001 54.212955
56.525002 54.212818
54.775002 54.361156
51.674999 54.271503
48.599998 53.958675
45.849998 53.928276
44.099998 53.807137
43.750000 53.768192
44.250000 53.640823
44.500000 53.349937
45.200001 53.483990
45.924999 53.235477
46.400002 53.301498
46.424999 53.300205
46.700001 53.249779
46.849998 53.262451
46.950001 53.073792
47.200001 52.985577
47.750000 52.921192
48.775002 53.418472
50.049999 53.237137
50.924999 53.203754
51.049999 53.179382
50.849998 53.062637
50.250000 53.175354
49.275002 52.911263
49.025002 52.965912
48.849998 52.857361
48.974998 52.976051
49.174999 53.112160
49.125000 53.162014
49.450001 53.148922
49.275002 53.238323
48.575001 53.204617
48.424999 53.180012
48.349998 53.162064
48.400002 53.000523
48.450001 52.635227
48.275002 52.962368
48.674999 53.201122
48.599998 53.474342
48.875000 53.574791
48.875000 53.499660
48.900002 53.246910
48.775002 53.408798
48.575001 53.576439
48.674999 53.698780
49.474998 53.689117
51.200001 53.632580
52.750000 53.690281
53.075001 53.732391
52.575001 53.763126
51.924999 53.835037
51.549999 53.887520
51.099998 53.925823
51.250000 54.102219
50.825001 54.033039
51.075001 53.883591
52.750000 53.972431
58.125000 54.086758
71.000000 54.071232
78.800003 54.257824
79.775002 54.394009
66.449997 54.295475
43.750000 54.322529
44.299999 54.193836
77.900002 54.050423
78.099998 53.846806
63.275002 53.549755
50.099998 53.679306
41.099998 53.773861
7.225000 53.892353
84.474998 53.978825
0.500000 54.190384
0.400000 54.245823
0.300000 54.137848
0.700000 54.207485
0.375000 54.159348
11.450000 54.223175
44.750000 54.368713
16.000000 54.474937
66.949997 54.206108
82.525002 54.009911
78.425003 53.866707
83.199997 52.525219
84.199997 52.733639
84.250000 52.984711
34.375000 53.217434
12.925000 53.090416
17.424999 53.344063
33.450001 53.430225
48.200001 53.493111
52.450001 53.835884
57.325001 53.888138
55.849998 54.074715
51.400002 54.161400
46.424999 54.323627
39.599998 54.145161
83.125000 53.866463
82.925003 53.860977
82.724998 53.807495
81.974998 53.867420
66.974998 53.911148
61.349998 53.992550
70.025002 53.854042
70.224998 53.752956
63.000000 53.877090
42.299999 53.819252
49.275002 53.727558
52.049999 53.957512
76.625000 53.877953
76.724998 53.918842
76.875000 53.849728
76.750000 53.650841
67.449997 53.753090
48.900002 53.679268
29.650000 53.625393
41.775002 53.586071
49.500000 53.705811
48.299999 53.842682
41.275002 53.744663
61.674999 53.772076
33.099998 53.693130
26.799999 53.882908
29.174999 53.922459
35.799999 53.951321
42.549999 54.170307
57.250000 54.231171
25.850000 54.325069
20.950001 54.294651
30.825001 54.272442
43.174999 54.157276
51.150002 54.073223
54.000000 54.110840
53.325001 54.088814
51.049999 54.072735
48.650002 53.863087
47.275002 53.561642
45.775002 53.638508
45.924999 53.694607
46.375000 53.883980
46.900002 53.972721
47.025002 53.988010
47.125000 54.197083
46.849998 54.151756
46.575001 54.069195
46.650002 54.157375
47.474998 54.172256
46.750000 54.232590
62.125000 54.227154
41.599998 54.124229
69.699997 53.999622
65.599998 54.007648
32.075001 54.013496
0.425000 54.067242
0.350000 54.007519
11.900000 54.112358
43.299999 54.139400
80.900002 54.109653
81.800003 54.137428
82.699997 54.108219
73.724998 54.086903
74.525002 53.774464
77.500000 53.892792
75.199997 53.979149
74.675003 53.943226
74.574997 53.917000
74.775002 53.848381
74.974998 53.897259
77.000000 53.982414
36.400002 53.945599
29.875000 53.918732
23.900000 53.899124
18.299999 54.033253
42.500000 54.081665
45.325001 54.067516
67.474998 54.205627
81.550003 54.157990
7.600000 54.222187
40.250000 54.120602
73.875000 54.145416
75.125000 54.213009
76.775002 54.212860
36.299999 54.113789
46.599998 54.239407
0.325000 54.182644
0.350000 53.992783
5.725000 54.002647
51.325001 53.910889
43.700001 53.547050
15.025000 53.380459
34.275002 53.555752
45.450001 53.683681
47.924999 53.628616
47.250000 53.538948
45.224998 53.473503
43.875000 53.475220
41.349998 53.179592
50.799999 53.161758
26.799999 53.247688
40.575001 53.409363
59.200001 53.378925
62.799999 53.406189
56.200001 53.525051
48.924999 53.512840
48.174999 53.751324
44.875000 53.677986
58.799999 53.624462
11.900000 53.684353
83.599998 53.678581
25.275000 53.674374
0.825000 53.671303
0.700000 53.619583
0.450000 53.581829
0.350000 53.702713
82.875000 53.790943
78.050003 53.657417
79.099998 53.411533
79.375000 53.331028
79.449997 53.272274
68.349998 53.377831
51.025002 53.454872
53.474998 53.412148
48.549999 53.529400
46.924999 53.466534
38.250000 53.519608
41.775002 53.261475
50.799999 53.221508
54.799999 53.340778
52.900002 53.279396
46.775002 53.234589
34.799999 53.201889
79.875000 53.425423
17.900000 53.638046
77.824997 53.595314
66.099998 53.564117
51.200001 53.739269
36.575001 53.718666
38.224998 53.654148
28.950001 53.557583
4.450000 53.685024
29.325001 53.580116
32.825001 53.355110
59.724998 53.388813
79.074997 53.413410
45.974998 53.431358
76.599998 53.444462
79.625000 53.355064
44.974998 53.487736
14.000000 53.584564
12.375000 53.605751
26.375000 53.423302
40.625000 53.339615
49.099998 53.377502
51.224998 53.306194
50.049999 53.155190
46.900002 53.094467
45.075001 53.149101
44.950001 53.040539
46.025002 53.060265
49.200001 53.173622
51.724998 53.256355
52.049999 53.564129
45.000000 53.491882
59.625000 53.587593
63.700001 53.706921
42.025002 53.794014
75.025002 53.709145
68.349998 53.498760
0.475000 53.493652
24.475000 53.687843
8.475000 53.681129
27.650000 53.527794
55.575001 53.465363
82.250000 53.419796
35.474998 53.337063
0.475000 53.375641
0.500000 53.403793
15.750000 53.424339
38.500000 53.340374
52.224998 53.477013
56.325001 53.626221
54.200001 53.636154
50.075001 53.544453
46.849998 53.032211
46.025002 53.153145
47.450001 53.142452
51.549999 53.134640
55.650002 53.178421
56.750000 53.408291
55.450001 53.378143
56.075001 53.405621
46.000000 53.326717
38.924999 53.368092
37.174999 53.447765
52.150002 53.505913
82.800003 53.399914
82.550003 53.421513
67.099998 53.486752
19.500000 53.633324
77.949997 53.641346
78.500000 53.597717
81.974998 53.367958
46.250000 53.150787
22.450001 53.140728
21.625000 53.083904
32.025002 53.240353
43.299999 53.255577
50.000000 53.118248
51.974998 53.116982
50.775002 53.116055
48.875000 53.214333
47.000000 53.286068
47.150002 53.239464
49.525002 53.403362
54.224998 53.473507
58.250000 53.574184
56.950001 53.598179
54.025002 53.566212
52.000000 53.592358
46.950001 53.463009
42.549999 53.368599
40.450001 53.250221
40.674999 53.361732
70.375000 53.344170
84.775002 53.380821
27.000000 53.407578
0.450000 53.625019
0.300000 53.486847
77.699997 53.188084
79.250000 53.217422
79.250000 53.238842
79.250000 53.303955
78.775002 53.301998
78.574997 53.152130
66.275002 52.993271
49.400002 53.025768
39.099998 52.950523
37.575001 52.945084
40.525002 53.139038
43.500000 53.181633
50.549999 53.212719
57.900002 53.383842
70.974998 53.409782
73.349998 53.478184
45.825001 53.478642
22.174999 53.429485
14.700000 53.542049
75.750000 53.475765
0.375000 53.476868
0.325000 53.378716
0.300000 53.406033
22.225000 53.425976
63.974998 53.391060
80.724998 53.563480
80.275002 53.491405
77.724998 53.438808
79.425003 53.400417
80.574997 53.372398
51.950001 53.450905
27.950001 53.161854
24.075001 53.148804
31.275000 53.089806
40.875000 53.244656
47.375000 53.258720
50.474998 53.219501
49.825001 53.190880
48.650002 53.268944
49.625000 53.325924
53.500000 53.367512
56.400002 53.348381
59.525002 53.482861
53.599998 53.432571
77.949997 53.445343
82.050003 53.306232
31.025000 53.303658
0.400000 53.202816
0.400000 53.030266
0.350000 53.250690
67.849998 53.263115
84.699997 53.222710
57.750000 53.341660
82.000000 53.280037
0.225000 53.383499
77.849998 53.261093
79.625000 53.221233
79.275002 53.390064
72.875000 53.364845
49.025002 53.395912
25.549999 53.270153
63.974998 53.227852
63.575001 53.295933
33.724998 53.048748
17.900000 53.066250
19.400000 53.029552
29.775000 53.200684
50.400002 53.078190
78.650002 53.186703
81.625000 53.166939
60.875000 53.251476
6.625000 53.313175
0.550000 53.160286
0.450000 52.999226
5.525000 53.030109
39.375000 53.003178
51.650002 53.032993
67.849998 53.054760
61.099998 53.070644
63.424999 53.082233
36.799999 53.288616
76.875000 53.389763
83.150002 53.364620
56.875000 53.197834
81.324997 53.175060
80.425003 53.059486
80.349998 53.222530
58.375000 53.143612
24.125000 53.135494
9.975000 53.327484
17.750000 53.319168
33.575001 53.164661
45.825001 53.150856
53.450001 53.041817
58.099998 53.160160
60.450001 53.246521
59.974998 53.111637
55.500000 53.310074
50.825001 53.306461
46.049999 53.353306
0.125000 53.239056
79.074997 53.106190
78.074997 53.207142
76.949997 53.132374
77.000000 53.127289
76.025002 53.173058
75.699997 53.206459
76.400002 53.280315
76.449997 53.185783
60.525002 53.215748
6.975000 53.188137
0.400000 53.118511
28.174999 52.968735
73.675003 53.007858
75.550003 52.986935
57.325001 52.922180
39.450001 52.874924
28.850000 52.741470
27.975000 52.891476
39.325001 52.901989
47.724998 52.810707
66.800003 52.744080
49.900002 52.794422
16.350000 53.029076
0.275000 53.200336
12.650000 53.176888
54.549999 53.308216
77.875000 53.305103
65.199997 53.253353
60.349998 53.462982
54.150002 53.418060
21.475000 53.484230
0.650000 53.532528
0.400000 53.419338
49.849998 53.188293
69.275002 53.069149
81.175003 52.784271
70.824997 52.873230
68.974998 52.938156
42.575001 52.886585
57.025002 52.848946
41.500000 52.524597
32.025002 52.634228
42.000000 52.615284
32.174999 52.601456
13.925000 52.838764
2.025000 53.110912
24.025000 53.012672
42.674999 53.039925
48.575001 53.059814
45.974998 53.222771
48.875000 53.193268
41.825001 53.171730
68.224998 53.353931
79.849998 53.288990
61.049999 53.340549
44.025002 53.328709
33.974998 53.122143
22.000000 53.218781
61.025002 53.190357
79.500000 53.070652
75.625000 52.933804
82.525002 53.031841
66.025002 53.004440
63.400002 52.934959
74.300003 52.884251
74.375000 52.847233
78.900002 52.968662
55.500000 52.958328
10.200000 53.000267
9.600000 53.080345
21.525000 53.138798
37.674999 53.131973
45.125000 52.929085
45.500000 52.879959
76.724998 52.893585
84.875000 52.804577
80.974998 52.739613
28.900000 52.890118
0.450000 52.900997
2.325000 52.859463
15.875000 52.977589
34.500000 52.915363
38.224998 52.820469
80.050003 52.899643
76.025002 52.858471
79.400002 52.976868
83.750000 53.013794
79.574997 52.941788
66.750000 52.988190
30.700001 53.121014
10.400000 51.783058
0.750000 52.093021
0.600000 52.269768
0.575000 52.448238
16.900000 52.430069
34.924999 52.614716
58.900002 52.848434
64.000000 53.019012
56.799999 53.143513
33.500000 53.135422
79.650002 53.178989
78.849998 53.161316
78.750000 53.247364
79.050003 53.161739
78.875000 53.148720
79.025002 53.139221
80.750000 53.033325
53.000000 53.055000
39.025002 52.971855
17.850000 53.158577
46.125000 53.146412
18.549999 53.137539
45.625000 53.032101
74.949997 52.856186
76.425003 52.430927
76.275002 52.516380
76.400002 52.529274
69.000000 52.538681
42.849998 52.644508
17.725000 52.771229
17.200001 52.814228
1.825000 52.895096
0.375000 53.053070
5.425000 53.069412
27.350000 53.180294
26.400000 53.112789
75.824997 53.112995
77.050003 53.063667
77.724998 52.978188
77.125000 52.965275
78.250000 52.807415
78.349998 52.791161
57.150002 52.779301
45.875000 52.919079
46.099998 52.922134
22.750000 52.973846
27.600000 53.011593
40.650002 53.187580
54.125000 53.266537
66.400002 53.175728
75.375000 53.010490
76.150002 53.087811
79.599998 52.748417
53.825001 52.847061
0.500000 52.968533
0.500000 52.809795
0.350000 52.743416
0.400000 52.843410
50.275002 52.965874
76.599998 53.005772
80.449997 52.935932
71.800003 52.884960
52.000000 53.045673
39.724998 53.014530
38.299999 52.942326
29.924999 52.790661
51.424999 52.927372
53.400002 53.126106
67.824997 53.221672
65.050003 53.241943
40.500000 53.108295
29.299999 53.060234
40.775002 52.678810
55.575001 51.212925
41.924999 51.528469
34.674999 51.956692
34.450001 52.219749
39.000000 52.362259
44.799999 52.466267
47.375000 52.443214
43.799999 52.574833
41.750000 52.571934
42.424999 52.569820
43.950001 52.568279
46.974998 52.666107
47.075001 52.786987
48.099998 52.825733
46.900002 52.903488
39.375000 52.762321
35.125000 52.659294
29.325001 52.683056
35.799999 52.650921
44.299999 52.627468
51.299999 52.808266
55.750000 52.791786
66.599998 52.878712
80.474998 52.744236
80.900002 52.596615
80.800003 52.686787
68.250000 52.653641
52.900002 52.827370
44.025002 52.855202
41.125000 52.924995
42.525002 52.926456
46.000000 52.680126
48.275002 52.698261
48.924999 52.612541
48.349998 52.549973
47.299999 52.504307
46.700001 52.668900
45.900002 52.739548
46.299999 52.642670
46.599998 52.670925
47.075001 52.493626
62.775002 52.710583
22.950001 52.769970
4.250000 52.813309
15.850000 52.943901
34.224998 52.940258
47.825001 52.888115
46.349998 52.751106
78.574997 52.651104
78.699997 52.874996
79.349998 52.889965
79.900002 52.801933
80.449997 52.935596
68.574997 53.082626
49.349998 53.041500
41.349998 53.011486
42.450001 52.643223
41.799999 52.671326
39.724998 52.592884
45.549999 52.634586
52.575001 52.665024
54.075001 52.835674
53.000000 52.861271
50.000000 52.830463
48.500000 52.758503
46.275002 52.755463
45.075001 52.951160
44.650002 52.846596
44.075001 52.770283
44.625000 52.912495
33.049999 52.917336
44.325001 52.673466
81.275002 52.643925
52.875000 52.671833
24.325001 52.791164
15.650000 52.729828
24.450001 52.734531
42.049999 52.688488
54.500000 52.852798
58.950001 52.576889
65.099998 52.523956
78.775002 52.485321
78.599998 52.358166
78.900002 52.512756
79.125000 52.576107
54.575001 52.572868
52.174999 52.768410
65.400002 52.762695
63.174999 52.610088
55.250000 52.696617
46.349998 52.710297
42.099998 52.720276
43.200001 52.628605
44.674999 52.660664
46.150002 52.684055
49.700001 52.651646
51.375000 52.825912
10.800000 52.903618
9.725000 52.861378
33.450001 52.880020
77.974998 52.745193
62.849998 52.745747
79.199997 52.696674
60.674999 52.908260
52.424999 52.914238
44.224998 52.869129
34.599998 52.836197
49.224998 52.713215
15.950000 52.771893
0.175000 52.814720
4.050000 52.747013
0.375000 52.747082
13.200000 52.747128
64.275002 52.747162
61.674999 52.648228
59.174999 52.724461
41.125000 52.681137
37.325001 52.204208
37.549999 52.499352
41.049999 52.615803
45.575001 52.849228
48.575001 52.970112
48.724998 52.909908
47.875000 52.915447
49.674999 52.771053
52.924999 52.764622
63.125000 52.759930
60.424999 52.954422
56.875000 53.046890
56.275002 53.064896
50.575001 52.979088
33.700001 52.817501
30.650000 52.749043
78.599998 52.352726
78.425003 52.360352
78.824997 52.415394
78.949997 52.455570
79.025002 52.484890
79.150002 52.605247
66.474998 52.792053
47.625000 52.582031
38.250000 52.527710
36.849998 52.587021
39.674999 52.630306
41.424999 52.810337
49.250000 51.556320
52.174999 52.075970
50.000000 52.356277
48.750000 52.461903
45.950001 52.538986
25.750000 52.793171
34.900002 52.879723
39.125000 53.140812
54.500000 53.380844
73.875000 53.457073
63.674999 53.413750
67.224998 53.184216
56.474998 53.264084
48.825001 53.025501
57.799999 52.752415
19.000000 52.602577
0.700000 52.592186
59.049999 52.584595
40.375000 52.678020
27.049999 52.696716
28.424999 52.611420
36.625000 52.549156
45.125000 52.602673
49.325001 52.542774
50.049999 52.746456
49.025002 52.895107
46.000000 53.053078
47.325001 52.871498
33.174999 53.085327
26.375000 53.191910
19.299999 53.319180
83.125000 53.263626
79.925003 53.420998
48.875000 53.486378
30.875000 53.484615
12.650000 53.433849
25.049999 53.149403
69.250000 53.238674
81.425003 53.056435
80.275002 52.972908
81.425003 52.763512
82.500000 52.808601
55.700001 52.841507
16.450001 52.618122
5.925000 52.653004
16.150000 52.727947
34.375000 52.634205
48.849998 52.565788
54.674999 52.565334
54.450001 52.861874
51.099998 52.880383
48.474998 52.844418
46.825001 52.719208
46.750000 52.726788
47.224998 52.930233
46.200001 52.930275
45.500000 52.979790
37.924999 52.966446
83.300003 53.055672
52.025002 53.170269
21.325001 53.204426
0.375000 53.179874
78.900002 53.260914
80.324997 53.221100
82.300003 53.192051
80.349998 53.170841
82.050003 53.056408
45.775002 52.923409
42.950001 52.628422
76.699997 52.611050
49.375000 52.598366
29.450001 52.539623
28.575001 52.496765
36.075001 52.762348
44.000000 52.708794
48.825001 52.768658
49.974998 52.762875
49.325001 52.857613
46.924999 52.827801
44.674999 53.003960
39.200001 52.984089
50.025002 53.019062
68.349998 53.242508
63.500000 53.257149
15.925000 53.168877
4.600000 53.203403
4.950000 53.327568
24.424999 53.071835
54.450001 52.885193
78.824997 52.699486
77.875000 52.761868
76.675003 52.807400
77.324997 52.791149
77.400002 52.779289
77.425003 52.968548
77.349998 53.057201
76.300003 52.973465
55.625000 52.664963
44.049999 52.835629
38.349998 52.960194
54.174999 53.150063
36.750000 53.288635
22.650000 53.241333
23.424999 53.305775
32.950001 53.154884
9.825000 53.143719
0.850000 53.333485
0.825000 53.323551
19.100000 53.316292
24.174999 53.261524
28.350000 53.320511
80.974998 53.116161
79.625000 53.016495
82.925003 52.745842
44.174999 52.845177
11.000000 52.917683
76.474998 52.871635
76.775002 52.838036
77.175003 52.615593
77.224998 52.700642
77.400002 52.515312
77.375000 52.627449
58.150002 52.808254
43.224998 52.989689
37.000000 53.023155
39.549999 52.998096
45.325001 52.930332
47.799999 52.979832
43.224998 52.867519
55.099998 52.736069
67.750000 52.739090
26.325001 52.889736
23.825001 52.950199
29.950001 52.944851
24.825001 52.990425
27.275000 53.172127
52.450001 53.255264
50.549999 53.167503
50.174999 53.004490
45.500000 53.083431
37.450001 53.042088
53.049999 53.110874
73.599998 53.062119
9.450000 52.977058
36.825001 52.964451
77.300003 52.757336
77.175003 52.754616
78.599998 52.901062
50.150002 52.859512
31.125000 52.977623
29.450001 52.964867
37.424999 53.005039
64.324997 52.935394
23.375000 52.884567
21.174999 52.946426
34.549999 53.189495
30.350000 53.218456
78.425003 53.140640
77.800003 53.034363
53.799999 53.055759
53.075001 52.972408
33.099998 53.010544
27.674999 52.988895
50.174999 52.874134
40.250000 52.988297
41.299999 53.170574
39.325001 53.105686
39.250000 53.058334
24.000000 52.875336
46.525002 52.840736
35.575001 52.716522
47.099998 52.724827
68.724998 52.681408
78.175003 52.847630
79.599998 52.919468
65.400002 52.872944
49.825001 52.641075
11.500000 52.471844
10.750000 52.298851
11.000000 52.617905
11.900000 52.751808
27.875000 52.701099
42.750000 52.763042
51.025002 52.857735
53.974998 52.877365
54.424999 52.941174
51.900002 52.987743
48.174999 52.823814
45.200001 52.803127
45.349998 52.788029
46.674999 52.925449
46.799999 52.926785
53.674999 52.878281
65.900002 52.546013
62.150002 52.501419
52.849998 52.617313
43.025002 52.602936
44.900002 52.592445
50.900002 52.782703
58.200001 52.822609
62.799999 52.703297
63.075001 52.764645
58.924999 52.858902
48.474998 52.927696
63.724998 52.829472
69.800003 52.807259
59.500000 52.741566
40.799999 52.891541
57.375000 52.951515
83.525002 52.896336
68.400002 52.955021
14.275000 53.096809
0.425000 53.200287
0.550000 53.077900
41.025002 53.137012
64.375000 53.279114
43.450001 53.085945
78.625000 53.043930
78.900002 51.479404
78.599998 51.821922
73.199997 51.972946
64.750000 52.182129
57.625000 51.840008
49.075001 52.184063
44.700001 52.385693
47.849998 52.384415
53.150002 52.482437
56.325001 52.553978
55.700001 52.804111
52.450001 52.838234
49.325001 52.764172
46.099998 52.908043
38.075001 53.062515
53.799999 53.125782
65.400002 53.072998
7.425000 53.133430
0.375000 53.177544
0.225000 53.061298
3.625000 53.124893
82.650002 53.121830
82.349998 53.119595
56.150002 53.117966
79.150002 52.918854
46.974998 52.872498
21.350000 52.789181
19.700001 52.728378
29.950001 52.881912
42.200001 52.845535
50.174999 52.868462
52.900002 52.885201
55.025002 52.847935
59.674999 52.820736
63.750000 52.751408
64.175003 52.849239
60.974998 52.673248
57.900002 52.841679
48.400002 52.865646
46.200001 52.833660
53.150002 52.909279
0.450000 53.063419
83.150002 52.879047
68.574997 52.843445
23.575001 52.718498
33.150002 52.874706
48.099998 52.889751
46.375000 52.851254
36.924999 52.823154
42.950001 52.703693
49.650002 52.764935
50.525002 52.760159
49.125000 52.509277
47.400002 52.722004
45.500000 52.728825
45.575001 52.882236
46.349998 52.895252
49.650002 52.756313
56.724998 52.803349
62.974998 52.788193
64.550003 52.777134
60.575001 52.571144
55.825001 52.767159
51.875000 52.910221
48.349998 52.767231
48.049999 52.662876
78.875000 52.586716
81.275002 52.778519
80.800003 52.720589
47.825001 52.678318
59.849998 52.845379
29.250000 52.868351
0.300000 52.934597
35.700001 52.982944
36.099998 52.919270
72.824997 53.021236
73.150002 52.996696
64.974998 52.879829
73.625000 52.992447
75.574997 53.074646
76.250000 53.085159
76.224998 53.043350
76.849998 52.963356
62.799999 53.003937
44.799999 52.835629
41.474998 52.415920
44.724998 52.802307
49.775002 52.935871
52.025002 53.033352
52.375000 53.055016
49.700001 53.070831
52.174999 52.884457
51.775002 53.094784
16.950001 53.050377
4.300000 53.067448
18.924999 53.178856
37.900002 53.161217
48.325001 53.148335
49.349998 53.138943
49.674999 53.231041
47.250000 53.149822
47.974998 52.892632
56.700001 52.803879
52.575001 52.937016
57.599998 52.885754
41.000000 52.798855
27.900000 52.735432
27.000000 52.887066
33.500000 52.849293
38.849998 52.722763
43.275002 52.729385
48.250000 52.684731
54.200001 52.850056
60.750000 52.970718
59.875000 53.108265
58.825001 53.109695
43.299999 53.209698
39.500000 53.282681
27.775000 53.286469
83.800003 53.190277
56.125000 53.219028
0.350000 53.338966
0.375000 53.179111
0.550000 53.161404
77.800003 53.197956
73.199997 53.076195
75.675003 52.888374
76.000000 52.949203
75.699997 52.845165
75.699997 52.620796
75.800003 52.704441
75.675003 52.666527
75.675003 52.688335
57.674999 52.605293
43.750000 52.643642
34.025002 52.671635
27.549999 52.642582
30.049999 52.819302
39.825001 52.799839
51.599998 52.884590
56.974998 53.045406
59.174999 53.212250
60.150002 53.235065
24.400000 53.202236
23.450001 53.227760
31.625000 53.246380
0.250000 53.259975
38.799999 53.121464
37.400002 53.218285
63.000000 53.288948
69.099998 53.192089
76.974998 52.972954
79.849998 52.862499
45.000000 52.781883
1.575000 52.723053
1.775000 52.630630
1.750000 52.711617
1.625000 52.721245
26.375000 52.579834
42.950001 52.575588
53.000000 52.720921
56.750000 52.826996
49.599998 52.904411
41.974998 53.059872
36.174999 53.123856
39.825001 52.873676
41.500000 52.790043
49.000000 52.926918
55.750000 53.026821
57.849998 53.149208
62.500000 53.189053
55.025002 53.168659
31.950001 53.203247
85.425003 52.981106
85.099998 52.621052
41.025002 52.506706
0.700000 52.670650
53.424999 52.790298
77.849998 52.828152
77.775002 52.707340
77.974998 52.767601
78.150002 52.465225
78.449997 52.442463
72.175003 52.475323
47.299999 52.697220
35.900002 52.859177
30.475000 52.828941
25.350000 52.905830
32.000000 52.862991
16.000000 53.029640
16.125000 52.903870
0.400000 52.960518
0.325000 52.853420
0.300000 53.022655
0.250000 53.047215
19.875000 53.114616
58.174999 53.114334
82.000000 53.015156
84.400002 52.942783
84.199997 52.840485
79.625000 52.765812
61.799999 52.760799
50.450001 52.658184
43.275002 52.484325
42.849998 52.604836
48.224998 52.643314
51.599998 52.621914
51.875000 52.556812
51.150002 52.756699
51.825001 52.952065
51.625000 53.045170
46.575001 52.865726
42.724998 52.833717
34.424999 52.711403
18.674999 52.721088
19.600000 52.678680
29.350000 52.845642
34.450001 52.918018
82.724998 51.486465
82.675003 51.926037
81.275002 52.345806
81.074997 52.503738
82.224998 52.569527
66.875000 52.518581
45.575001 52.530872
49.299999 52.539852
48.724998 52.397964
44.075001 52.541809
49.299999 52.498352
53.799999 52.615074
54.974998 52.551823
53.099998 52.604618
51.625000 52.643150
51.724998 52.869194
51.275002 52.984688
42.599998 52.920544
50.299999 52.774769
49.750000 52.668377
36.500000 52.739162
25.200001 52.691868
28.475000 52.657352
54.950001 52.780594
72.300003 52.821068
64.925003 52.999043
51.900002 53.079453
33.799999 53.138149
34.025002 53.032543
54.924999 52.757553
59.950001 52.606335
55.474998 52.495972
50.349998 52.514374
47.775002 52.527813
51.099998 52.339699
57.750000 52.350842
61.575001 52.358978
60.575001 52.513351
56.700001 52.626019
53.224998 52.609295
51.375000 52.597084
50.900002 52.637653
50.299999 52.766216
47.950001 52.810574
55.625000 52.793468
52.150002 52.830460
0.525000 52.709023
0.425000 52.669868
9.700000 52.839214
69.275002 52.764893
82.349998 52.809605
70.800003 52.792763
59.900002 52.780464
54.825001 52.573578
48.075001 52.323624
48.174999 52.240150
49.349998 52.228710
48.799999 52.269844
49.200001 52.398815
48.825001 52.393993
47.825001 52.291515
51.224998 52.414635
54.625000 52.553970
55.750000 52.556705
57.799999 52.756622
57.250000 52.605652
57.549999 52.841824
57.150002 52.964710
56.025002 53.004921
51.650002 53.083744
51.750000 52.893883
42.299999 52.755314
6.225000 52.604694
8.625000 52.692688
42.275002 52.707432
66.800003 52.817150
74.349998 52.996181
40.299999 52.978416
72.150002 52.915966
81.500000 52.771427
79.800003 52.715416
43.474998 52.872452
32.099998 52.937588
28.575001 52.935646
29.000000 52.835270
33.549999 52.860977
38.974998 52.731289
44.075001 52.636646
47.250000 52.567570
50.325001 52.566635
56.625000 52.763866
61.349998 52.957298
74.824997 52.999512
61.974998 52.931362
76.400002 53.079536
76.625000 53.039246
74.525002 52.910885
74.400002 53.015114
75.224998 52.992229
84.125000 53.025009
0.300000 52.999451
0.400000 52.931316
0.350000 52.782631
0.300000 52.674114
0.325000 52.792835
0.275000 52.829994
30.900000 52.708687
61.650002 52.620148
70.224998 52.703964
64.599998 52.765137
54.775002 52.512909
46.849998 52.526737
45.575001 52.536831
47.849998 52.643158
44.250000 52.720757
55.299999 52.727921
64.324997 52.683666
69.574997 52.651360
68.375000 52.677273
67.400002 52.547737
61.674999 52.750076
39.875000 52.848274
40.375000 52.722019
47.700001 52.728836
61.000000 52.931728
60.424999 52.980846
47.125000 52.967220
40.174999 52.957272
37.125000 53.048969
35.049999 52.967461
42.424999 52.858490
37.299999 52.976879
40.025002 52.815887
43.099998 52.747864
47.200001 52.549782
49.775002 52.405216
50.450001 52.349182
48.974998 52.407246
51.900002 52.548580
51.075001 52.602253
48.625000 52.542469
47.450001 52.647270
50.299999 52.822720
55.849998 52.950768
65.400002 52.945271
65.574997 53.040207
58.200001 52.911591
49.950001 52.916672
45.349998 52.920380
45.375000 52.873611
47.174999 52.888954
45.775002 52.751713
44.224998 52.651546
45.200001 52.528961
53.450001 52.736370
37.950001 52.689835
51.150002 52.705345
50.750000 52.518753
45.825001 52.382568
45.549999 52.481091
45.799999 52.404560
46.125000 52.398178
46.500000 52.591442
47.049999 52.386139
46.974998 52.434219
47.099998 52.568268
47.875000 52.765057
55.599998 52.908691
62.674999 52.815601
63.375000 52.797138
60.674999 52.783661
49.674999 52.922264
82.474998 53.023422
75.625000 53.047775
9.225000 52.966587
0.275000 53.006290
4.125000 52.985786
31.000000 52.921349
53.025002 52.824837
63.674999 52.754398
74.875000 52.752468
67.800003 52.652100
54.325001 52.727291
46.075001 52.485287
44.575001 52.506577
45.000000 52.472641
45.799999 52.497353
47.000000 52.515377
46.450001 52.528542
46.674999 52.637112
49.299999 52.567909
50.000000 52.665840
50.275002 52.588875
54.500000 52.730621
62.075001 52.586681
67.800003 52.877453
63.450001 52.990715
58.500000 53.023903
54.025002 53.048122
46.224998 53.164757
43.424999 53.101448
43.474998 53.055241
45.775002 53.021515
49.375000 52.897938
50.150002 53.055149
49.750000 53.021450
47.325001 52.996845
52.450001 52.879936
80.500000 52.844093
67.599998 52.718967
47.325001 52.429737
38.525002 52.367081
39.700001 52.519268
45.875000 52.580856
49.674999 52.625813
49.424999 52.559662
48.450001 52.511383
48.625000 52.624584
48.849998 51.222828
46.599998 51.387264
62.875000 52.051544
77.550003 52.387936
64.050003 52.682922
40.099998 52.749783
29.950001 52.848057
32.500000 53.018738
40.400002 52.846439
47.525002 52.819649
50.924999 52.800091
52.200001 52.983730
51.275002 53.068283
50.099998 52.981552
47.549999 52.918251
42.450001 52.921532
52.500000 53.022892
53.349998 52.799988
61.025002 52.736263
54.799999 52.887676
46.125000 52.849739
42.500000 53.069450
42.650002 53.031883
44.700001 52.905506
46.849998 52.714314
47.900002 52.624252
48.099998 52.657486
47.700001 52.632259
50.424999 52.910725
46.375000 53.014996
48.674999 53.041622
53.700001 53.061058
57.974998 53.223679
57.525002 53.144451
55.299999 53.136108
52.799999 53.179489
50.500000 53.211155
48.900002 53.085827
47.575001 53.043842
49.575001 53.013191
54.099998 52.743427
55.775002 52.744461
54.400002 52.646259
52.400002 52.673538
47.375000 52.495541
44.900002 52.514061
45.000000 52.527584
45.950001 52.685890
46.950001 52.603504
47.650002 52.345467
47.775002 52.503494
48.200001 52.569347
47.450001 52.765846
48.424999 52.909267
48.950001 52.914978
46.150002 52.968620
41.325001 52.859337
41.700001 52.829056
51.099998 52.905914
57.400002 52.813572
60.299999 52.795658
58.325001 52.733101
53.974998 52.885361
55.549999 52.947006
52.650002 52.942520
50.775002 52.592896
51.575001 52.832512
50.200001 52.858959
50.799999 52.779301
51.700001 52.671684
49.450001 52.642620
47.700001 52.819328
46.400002 52.601936
45.674999 52.591717
45.924999 52.782169
46.275002 52.772736
46.700001 52.666889
47.200001 52.688599
47.174999 52.654972
47.525002 52.778862
47.075001 52.819805
45.200001 52.800201
44.724998 52.785896
42.724998 52.676495
43.049999 52.794575
45.549999 52.732307
51.375000 52.686867
58.575001 52.851616
61.799999 52.971855
58.875000 53.010139
54.875000 52.988598
52.375000 52.923397
54.599998 52.925293
51.224998 52.778236
50.750000 52.670906
49.924999 52.493614
48.875000 52.512657
49.299999 52.328640
48.875000 52.342773
47.224998 52.353081
46.450001 52.509048
46.700001 52.622879
47.674999 52.656487
48.424999 52.631531
48.400002 52.613312
48.450001 52.797932
48.275002 52.833717
47.500000 52.859837
47.099998 52.829422
46.275002 52.906181
46.950001 52.764282
46.400002 52.759682
44.224998 52.706848
43.424999 52.668282
48.474998 52.788574
56.700001 52.876369
63.450001 52.841492
63.825001 53.013947
63.825001 53.090336
59.299999 53.047131
53.724998 52.867161
49.950001 52.785286
45.150002 52.725536
47.825001 52.681923
49.125000 52.650085
49.525002 52.775295
50.174999 52.767719
49.924999 52.663235
48.825001 52.685932
48.275002 52.306664
47.674999 52.475174
47.424999 52.598152
47.424999 52.539474
47.825001 52.496655
47.724998 52.465393
47.825001 52.591022
48.224998 52.484791
47.950001 52.506218
46.075001 52.719772
47.924999 52.925114
44.325001 52.976025
43.750000 52.963699
43.924999 53.053665
53.700001 53.020359
60.125000 52.897102
62.299999 51.273285
59.325001 51.671490
55.250000 52.110550
54.275002 52.381519
63.825001 52.579281
66.125000 52.525703
63.000000 52.486595
67.675003 52.408577
60.450001 52.549549
49.625000 52.504002
42.825001 52.668671
41.125000 52.640427
42.875000 52.619804
45.950001 52.604755
48.424999 52.791695
49.924999 52.730213
49.825001 52.437943
49.424999 52.422539
48.700001 52.411308
47.049999 52.601025
44.875000 52.690006
41.000000 52.705475
38.674999 52.716755
37.000000 52.626038
38.025002 52.757744
39.299999 52.705429
50.174999 52.667248
59.700001 52.985737
62.724998 52.921307
60.000000 52.973244
54.500000 52.961670
52.700001 52.903740
50.875000 52.713028
52.500000 52.623314
61.525002 52.656799
64.224998 52.532795
68.824997 52.541256
56.099998 52.646381
48.049999 52.475719
43.750000 52.252205
42.775002 52.286983
43.400002 52.460808
44.325001 52.538189
45.950001 52.545189
47.125000 52.748215
46.650002 52.698471
44.700001 52.761131
41.049999 52.905819
41.299999 52.764023
42.724998 52.808975
41.299999 52.742817
49.349998 52.744015
46.400002 52.645927
48.224998 52.821743
56.474998 52.900578
63.325001 52.859154
63.299999 52.828922
55.900002 53.004776
78.474998 52.984680
82.949997 52.920536
84.150002 52.824245
51.299999 52.902405
34.799999 52.811008
35.400002 52.843266
42.474998 52.569935
48.799999 52.568356
51.724998 52.666164
51.974998 52.589111
49.849998 52.631836
47.375000 52.564060
46.750000 52.712509
46.424999 52.622936
47.000000 52.458603
45.599998 52.536583
52.950001 52.791412
47.099998 52.828960
43.625000 52.806889
42.275002 52.741299
38.250000 52.891346
37.400002 52.852413
41.724998 52.725048
52.950001 52.780525
62.424999 52.870499
69.150002 52.886684
72.175003 52.750061
67.900002 52.749302
58.275002 52.600307
56.250000 52.541050
53.250000 52.646233
52.075001 52.673523
50.099998 52.594486
48.400002 52.536797
48.250000 52.643135
48.724998 52.720741
48.924999 52.678429
47.650002 52.647537
46.500000 52.526039
45.400002 52.684761
47.174999 52.553204
45.849998 52.754066
40.900002 52.851185
40.375000 52.724148
37.474998 52.631435
43.349998 52.464802
51.474998 52.689548
47.599998 52.754620
45.075001 52.752632
45.325001 52.751179
52.950001 52.651154
63.674999 52.726597
75.349998 52.732174
78.025002 52.686768
70.949997 52.653625
63.349998 52.629440
55.200001 52.710751
48.200001 52.720608
45.325001 52.628845
45.599998 52.660839
47.700001 52.486263
49.724998 52.259899
50.500000 52.243130
49.750000 52.478279
48.950001 52.600422
46.275002 52.739048
44.000000 52.741264
45.974998 52.643925
54.674999 52.820278
56.224998 52.850029
51.474998 52.723305
47.049999 52.432899
44.474998 52.715740
43.900002 52.773735
44.525002 52.717102
47.575001 52.725250
49.025002 52.731197
54.150002 52.438656
63.674999 52.423065
82.675003 52.362213
72.750000 52.416752
59.700001 52.506042
51.575001 52.571209
48.525002 52.519810
49.299999 52.383343
50.375000 52.481655
50.849998 52.108097
50.775002 50.845871
50.750000 51.458500
50.375000 51.856148
50.325001 52.195839
47.375000 52.394287
48.900002 52.440166
72.525002 52.424168
79.800003 52.412495
78.925003 52.502930
44.224998 52.420494
20.725000 52.657211
17.200001 52.731018
26.000000 52.636448
37.599998 52.567425
45.950001 52.418087
51.900002 52.358582
55.950001 52.414101
61.224998 52.405151
59.750000 52.448090
55.875000 52.479431
60.150002 52.601265
65.275002 52.591228
62.849998 52.633377
57.450001 52.713623
52.299999 52.673225
48.775002 52.495312
47.099998 52.414936
47.000000 52.603668
48.299999 52.691940
49.299999 52.508968
48.950001 52.523865
44.674999 52.386295
34.075001 52.533287
32.375000 52.591095
33.349998 52.682758
0.300000 52.848621
0.175000 52.870716
18.325001 52.886841
52.049999 52.997566
65.925003 53.028904
64.375000 52.853855
73.650002 52.825054
72.125000 52.754559
63.000000 52.703106
53.150002 52.665550
48.849998 52.687622
50.775002 52.604767
57.750000 52.643265
62.549999 52.720837
62.150002 52.727978
57.724998 52.683704
53.500000 52.849308
50.349998 52.821735
48.450001 52.900570
47.500000 52.908634
47.799999 52.865036
49.125000 52.932178
49.275002 52.783257
46.974998 52.773537
44.125000 52.766434
43.025002 52.909691
42.424999 52.964767
40.875000 52.955482
41.825001 52.800266
42.325001 52.983860
46.875000 52.969414
46.000000 52.909401
47.224998 52.766636
50.974998 52.711922
63.250000 52.671986
57.125000 52.642838
47.974998 52.621567
43.200001 52.556561
43.224998 52.608078
49.275002 52.546722
59.724998 52.501938
66.099998 52.469250
65.125000 52.643314
59.349998 52.720867
53.799999 52.629036
51.799999 52.759933
46.099998 52.657551
43.549999 52.830219
47.625000 52.857281
35.674999 52.926517
55.974998 53.026527
57.150002 53.099518
52.750000 53.202263
47.250000 53.128822
39.849998 53.025742
36.099998 52.999985
38.950001 52.832745
41.200001 52.710693
48.700001 52.522655
58.299999 52.682289
62.700001 52.452446
51.799999 52.532085
43.500000 52.491257
39.900002 52.263542
40.700001 52.394222
44.099998 52.440113
49.375000 52.424126
56.924999 52.610386
62.150002 52.498920
62.099998 52.664967
58.150002 52.736679
52.700001 52.887978
49.150002 52.948914
46.625000 52.795479
44.025002 52.782448
41.150002 52.723461
42.525002 52.680412
45.224998 52.747948
46.125000 52.648800
45.650002 52.675400
45.400002 52.595856
45.525002 52.686234
46.099998 52.702721
45.500000 52.665268
46.025002 52.637939
50.950001 52.617989
54.450001 52.702389
50.599998 52.665028
45.325001 52.588284
40.549999 52.631226
40.349998 52.464657
42.500000 52.145164
44.724998 52.010948
46.950001 52.160389
49.474998 52.318935
56.224998 52.434650
61.950001 52.519104
62.500000 52.778652
62.375000 52.968086
58.250000 52.957909
53.250000 52.999958
46.125000 53.080124
40.849998 53.039673
34.099998 53.158596
50.575001 53.096947
58.549999 53.002480
46.924999 52.933529
39.174999 52.784248
37.349998 52.477379
41.150002 52.401848
50.599998 52.445679
60.825001 52.477676
70.474998 52.550503
67.349998 52.603657
50.924999 52.444534
42.950001 52.575794
40.900002 52.572639
42.799999 52.520855
45.375000 52.532532
48.450001 52.689499
49.349998 52.655624
49.325001 52.630894
52.424999 52.612854
58.400002 52.698639
62.275002 52.513859
57.525002 52.576912
52.650002 52.573452
42.150002 52.768848
19.924999 52.763008
43.700001 52.758751
77.300003 52.755642
65.724998 52.802856
49.099998 52.837311
37.200001 52.812981
23.975000 52.745739
9.300000 52.894588
27.049999 52.854782
60.450001 52.924690
74.324997 52.777798
70.425003 52.769550
72.400002 52.813004
55.500000 52.745758
41.750000 52.647202
35.150002 52.624752
36.700001 52.509411
44.075001 52.524185
51.099998 52.534966
52.650002 52.592319
55.299999 52.733135
60.799999 52.637989
49.299999 52.568546
41.275002 52.567345
51.400002 52.764381
57.375000 52.858711
61.650002 52.878078
62.474998 52.941692
47.275002 53.087078
37.400002 53.044758
35.799999 52.914906
33.849998 52.820133
25.375000 52.750965
48.650002 52.601521
67.875000 52.591412
64.900002 52.584030
44.500000 52.677612
33.974998 52.646946
34.375000 52.476128
40.299999 52.351456
45.025002 52.260468
48.900002 52.342499
49.950001 52.451851
48.450001 52.333733
46.674999 52.346489
45.174999 52.355797
48.900002 52.511032
55.549999 52.624325
64.500000 52.608055
65.199997 52.794098
59.075001 52.979362
51.400002 53.065090
42.474998 53.028709
60.375000 53.051632
74.425003 53.018879
68.625000 52.846542
55.250000 52.819721
42.974998 52.701183
34.150002 52.664146
39.849998 52.538158
58.299999 52.495693
45.125000 52.365734
29.400000 52.270889
31.700001 52.399578
42.049999 52.444027
50.224998 52.377506
52.875000 52.427921
50.700001 52.563667
47.125000 52.613266
45.099998 52.698940
45.400002 52.860432
46.424999 52.829857
44.674999 52.708580
51.049999 52.719025
42.174999 52.677177
70.000000 52.844547
66.675003 52.917217
48.349998 52.871304
28.075001 52.936749
45.424999 52.786594
59.900002 52.924404
60.750000 52.827068
64.675003 52.756027
53.500000 52.852615
44.400002 52.774673
44.900002 52.717785
43.049999 52.577309
47.500000 52.425301
48.325001 52.363846
46.750000 52.269508
45.825001 52.200661
46.299999 52.150402
47.599998 52.262165
48.549999 52.145821
49.174999 52.308300
48.900002 52.426888
47.125000 52.513435
48.974998 52.626080
61.974998 52.708298
71.550003 52.768295
63.650002 53.059486
51.525002 53.024616
49.525002 53.048645
51.299999 53.016701
49.799999 52.894432
57.200001 52.904148
60.849998 52.762802
54.750000 52.610165
66.250000 52.449284
70.925003 52.430820
74.949997 52.268909
58.900002 52.249699
44.724998 52.087242
40.450001 52.067627
41.250000 52.251232
43.825001 52.236797
46.375000 52.127300
49.224998 52.245308
50.099998 52.232471
50.474998 52.322063
49.974998 52.486412
48.275002 52.705318
45.849998 52.815605
59.174999 52.698177
47.775002 52.711437
42.025002 52.671635
26.725000 52.840500
67.199997 52.914268
69.574997 52.968102
53.000000 53.007397
43.349998 52.838161
42.000000 52.863083
47.349998 52.782307
49.325001 52.624397
54.224998 52.608109
58.924999 52.645699
59.025002 52.623657
57.625000 52.310692
56.099998 52.329674
51.950001 52.393009
49.174999 52.290794
45.325001 52.216190
44.424999 52.161747
45.500000 52.270447
46.924999 52.151867
45.349998 52.213753
44.375000 52.258919
44.724998 52.291889
46.349998 52.464382
44.674999 52.590286
42.474998 52.583210
46.575001 52.775967
54.900002 52.817692
53.549999 52.947098
42.450001 52.942589
55.375000 53.038254
67.849998 53.009117
67.275002 52.888893
60.349998 52.850628
52.400002 52.674259
48.099998 52.644497
54.400002 52.424858
33.025002 52.314045
32.000000 52.233158
44.174999 52.075172
48.375000 52.108303
43.849998 52.083008
40.400002 52.064537
41.575001 52.051060
44.224998 52.090706
46.200001 52.218594
47.424999 52.212975
47.700001 52.258354
47.500000 52.340958
46.875000 52.351757
46.275002 52.458603
45.674999 52.437626
50.174999 52.620235
70.900002 52.605072
78.800003 52.643482
61.049999 52.770477
7.500000 52.764202
62.974998 52.759628
62.325001 52.756287
43.375000 52.654888
36.750000 52.630356
38.750000 52.414543
76.349998 52.504425
80.525002 52.471066
80.375000 52.347763
81.074997 52.406212
67.599998 52.349907
81.275002 52.011940
48.924999 52.161110
57.724998 52.269985
70.474998 52.349438
68.775002 52.506393
56.724998 52.472507
46.250000 52.447769
41.825001 52.429722
42.250000 51.031128
47.575001 50.999954
56.674999 51.620430
39.875000 52.023808
10.400000 52.318207
12.700000 52.533073
39.400002 52.491978
47.474998 52.659904
43.849998 52.535065
38.099998 52.542912
38.075001 52.746552
39.075001 52.746742
51.200001 52.796356
46.700001 52.733608
43.750000 52.638336
72.699997 52.667763
69.349998 52.491318
79.224998 52.362549
65.599998 52.268566
45.174999 52.348404
50.724998 52.258240
65.900002 52.142952
78.349998 52.108295
70.199997 52.083000
38.825001 52.064537
31.775000 52.100536
35.950001 52.176296
46.224998 52.429504
28.750000 52.564827
22.299999 52.713070
20.225000 52.870743
63.200001 52.837383
43.700001 52.862511
22.750000 52.781895
44.674999 52.772541
57.525002 52.765705
63.849998 52.909161
55.875000 52.964375
49.275002 52.905720
40.299999 52.862915
41.625000 52.831665
32.924999 52.808861
45.150002 52.643784
54.424999 52.473820
84.400002 52.498211
83.849998 52.565491
82.900002 52.515636
82.750000 52.528732
82.699997 52.488808
54.700001 52.558628
25.875000 52.510628
4.550000 52.574554
35.575001 52.769653
64.550003 52.813076
54.474998 52.894253
18.575001 53.002975
28.250000 52.884411
0.250000 52.995789
0.225000 52.978127
6.850000 52.866272
46.174999 52.883602
76.775002 52.995197
77.574997 52.977695
78.500000 52.816483
80.199997 52.847256
80.375000 52.523365
80.074997 52.385933
65.775002 52.285625
20.174999 52.360859
13.000000 52.217850
35.325001 51.915558
31.299999 51.942329
29.875000 51.961872
34.025002 52.124569
41.700001 52.144356
47.325001 52.059837
49.750000 52.196060
49.549999 52.344967
48.650002 52.404171
48.099998 52.496861
48.299999 52.515022
47.099998 52.379848
45.700001 52.380146
59.599998 52.479321
45.775002 52.502224
43.375000 52.716858
27.375000 52.774551
23.400000 52.767178
34.450001 52.662838
51.075001 52.487724
62.500000 52.607315
59.549999 52.595642
59.650002 52.587128
82.000000 52.580902
73.675003 52.477409
75.324997 52.401863
72.550003 52.346741
65.625000 52.059105
56.275002 52.195538
37.724998 52.047714
34.575001 52.038784
38.450001 52.032261
43.724998 52.175945
46.799999 52.231327
47.049999 52.370708
49.625000 52.373474
55.799999 52.672367
55.075001 52.890514
43.875000 52.851810
46.974998 52.774090
36.549999 52.915272
46.700001 52.919357
48.349998 52.971817
44.200001 52.861675
38.000000 52.830761
54.325001 52.857677
70.875000 52.728893
69.574997 52.436981
64.300003 52.372360
60.549999 52.424160
51.900002 52.511444
46.700001 52.426716
42.424999 52.315392
42.299999 52.234142
43.575001 52.323280
46.325001 52.091465
48.125000 52.021236
49.325001 52.167892
49.049999 52.373890
48.099998 52.177883
47.349998 52.282223
46.750000 52.457333
46.775002 52.436695
46.575001 52.025803
46.150002 52.022789
46.200001 52.119553
46.200001 52.437565
46.025002 52.570709
46.200001 52.519447
50.224998 52.482029
42.150002 52.454720
14.600000 52.731667
53.125000 52.933792
78.025002 52.982357
79.925003 53.067284
68.699997 52.881863
44.474998 52.944458
45.349998 52.841709
65.900002 52.816193
78.824997 52.847046
57.724998 52.770607
51.174999 52.665337
39.625000 52.489544
37.825001 52.509689
38.750000 52.474911
47.299999 52.400043
49.700001 52.394886
51.900002 52.292168
72.750000 52.415108
72.300003 52.356403
61.450001 52.363041
53.125000 52.367878
49.299999 52.519848
46.250000 52.531799
45.099998 52.441566
46.250000 52.425190
48.650002 52.561676
33.974998 52.512852
27.350000 52.576180
37.299999 52.572918
28.650000 52.768452
11.250000 52.911167
40.799999 52.916363
72.224998 52.969631
77.449997 52.810593
78.550003 52.991398
46.450001 52.875961
30.575001 52.742233
41.724998 52.842552
36.875000 52.767323
40.700001 52.860863
43.099998 52.780689
33.500000 52.672695
42.525002 52.593884
54.724998 52.437397
56.775002 52.323193
51.950001 52.289318
51.099998 52.363556
34.875000 52.467209
25.400000 52.344952
28.775000 52.354675
36.750000 52.460735
44.099998 52.538139
47.700001 52.396713
47.900002 52.392456
48.599998 52.636742
52.174999 52.716076
57.400002 52.823460
60.450001 52.852348
58.325001 52.724998
57.700001 52.879444
52.000000 52.843735
32.724998 52.817673
24.575001 52.798649
76.650002 52.933201
76.800003 52.981922
79.500000 53.017475
39.125000 52.944477
26.350000 52.792236
36.450001 52.730602
30.924999 52.735100
36.200001 52.688908
57.275002 52.803627
62.750000 52.689438
59.125000 52.655579
50.325001 52.531906
45.150002 52.491127
42.549999 52.461365
41.974998 52.340683
43.950001 52.351555
45.799999 52.408978
47.450001 52.450890
52.849998 52.184593
58.799999 52.138683
59.849998 52.204136
56.674999 52.053982
51.525002 52.389709
49.674999 52.535778
47.450001 52.543434
45.075001 52.746937
40.750000 52.796501
42.325001 52.882153
45.450001 52.895191
39.075001 52.855225
47.650002 52.925014
50.799999 52.778034
49.375000 52.769718
42.775002 52.714169
42.700001 52.475716
46.400002 52.301674
51.900002 52.224136
51.724998 52.167542
47.950001 52.126236
45.025002 52.343487
43.575001 52.304127
43.549999 52.324879
44.700001 52.389511
49.099998 52.634598
55.174999 52.714508
58.174999 52.772839
56.900002 52.914364
52.424999 52.918694
48.075001 52.773422
45.200001 52.766350
45.575001 52.711712
46.275002 52.869747
46.674999 52.935612
45.724998 52.884731
44.575001 52.946545
43.775002 52.892704
47.150002 53.051327
55.325001 53.018654
53.900002 53.044300
51.400002 53.112488
42.625000 53.013817
24.575001 52.991280
31.799999 52.974834
44.575001 53.061783
58.700001 52.976814
60.875000 52.815834
57.849998 52.698345
52.825001 52.563122
52.174999 52.711823
54.599998 52.473999
55.599998 52.448864
53.174999 52.430519
50.750000 52.417126
48.500000 52.555790
47.000000 52.558037
45.900002 52.559673
45.575001 52.758789
46.525002 52.953590
46.349998 52.996799
44.474998 52.978870
38.875000 53.015251
39.724998 53.041805
40.974998 52.912754
42.799999 52.868046
35.575001 52.835411
33.525002 52.762112
31.000000 52.758102
36.450001 52.755173
46.825001 52.654072
56.575001 52.580288
51.349998 52.625393
61.325001 52.509880
65.025002 52.475052
70.974998 52.499107
69.300003 52.516663
63.275002 52.529484
56.099998 52.637794
51.150002 52.617882
46.650002 52.652832
45.299999 52.579384
44.474998 52.525776
43.950001 52.486652
44.900002 52.656013
46.200001 52.730145
45.750000 52.635811
48.900002 52.665916
44.650002 52.588932
43.575001 52.829617
29.350000 52.906326
75.349998 52.962307
0.225000 53.201080
0.200000 53.226917
0.200000 53.146809
0.250000 52.939911
0.175000 52.689945
39.724998 52.655949
71.349998 52.829052
77.800003 52.905907
76.449997 52.813568
76.349998 52.647213
76.699997 52.575279
76.724998 52.324863
76.650002 52.142097
76.699997 52.107670
79.500000 52.082542
19.725000 52.212635
2.675000 52.406548
14.500000 52.449112
32.900002 52.430698
46.075001 52.565697
51.525002 52.416828
54.049999 52.506096
54.224998 52.620728
40.549999 52.852821
34.575001 52.923260
21.950001 52.974667
66.099998 53.111149
0.200000 53.012840
0.275000 53.040047
0.275000 53.059906
0.200000 53.123875
1.600000 53.170563
30.700001 53.056202
45.549999 52.873775
49.549999 52.889076
63.400002 52.801285
69.699997 52.687725
67.550003 52.802765
60.000000 52.787769
53.825001 52.826302
48.950001 52.656513
45.575001 52.631550
45.400002 52.662811
47.724998 52.487705
49.849998 52.458866
50.400002 52.388344
49.674999 52.584259
48.474998 52.677780
47.325001 52.696545
46.450001 51.225868
47.775002 51.537918
44.250000 52.013062
39.849998 52.260887
47.674999 52.342808
45.224998 52.600506
52.450001 52.788582
61.450001 52.876377
58.075001 52.989929
48.700001 53.072807
41.974998 52.984856
40.000000 52.871185
53.424999 52.837708
64.574997 52.763790
66.599998 52.808800
57.950001 52.792175
48.775002 52.582119
45.099998 52.527779
44.849998 52.389153
46.674999 52.485897
48.974998 52.507023
50.025002 52.472965
49.849998 52.646023
48.849998 52.425976
48.125000 52.562244
47.625000 52.661709
47.150002 52.684822
47.849998 52.751167
47.375000 52.651150
47.674999 52.677109
45.924999 52.696060
54.375000 52.858326
74.400002 52.729362
71.699997 52.882629
66.900002 52.846062
56.625000 52.819366
50.325001 52.849365
52.400002 53.019688
67.724998 52.946091
76.900002 52.842899
65.925003 52.817059
33.224998 52.847675
20.150000 52.820545
24.250000 52.949181
35.375000 52.894630
46.000000 52.755859
52.375000 52.654579
53.500000 52.580658
51.450001 52.576187
48.900002 52.622398
46.924999 52.557171
45.775002 52.509567
45.799999 52.474819
46.500000 52.597897
48.700001 52.638245
49.375000 52.420296
36.724998 52.657066
29.950001 52.730911
51.275002 52.784801
57.599998 52.824139
69.400002 52.951801
58.599998 52.946022
48.724998 52.793365
45.750000 52.681950
56.275002 52.402721
47.599998 52.446312
42.625000 52.527615
45.349998 52.438515
60.799999 52.422966
64.375000 52.312660
60.325001 52.430069
54.025002 52.218876
49.825001 52.114227
48.299999 52.235764
47.900002 52.225510
47.875000 52.316982
48.099998 52.383743
47.825001 52.382988
47.924999 52.481400
47.974998 52.454262
48.075001 52.236542
50.974998 52.226078
52.799999 52.465836
46.474998 52.541866
49.575001 52.498390
46.724998 52.466663
44.700001 52.443504
44.424999 52.377129
47.299999 52.427643
55.750000 52.464504
62.750000 52.639851
66.800003 52.619385
71.625000 52.554970
66.474998 52.557434
57.575001 52.509758
50.299999 52.474960
46.224998 52.152687
45.849998 52.115395
47.700001 52.038700
49.500000 52.081676
50.250000 52.014095
49.474998 52.212158
48.525002 52.257759
47.049999 52.389996
47.549999 52.535988
48.575001 52.543587
56.400002 52.549129
50.275002 52.701614
45.900002 52.763420
53.099998 52.956970
59.025002 52.949791
61.849998 52.895073
37.250000 52.706703
28.174999 52.618698
38.075001 52.653427
46.075001 52.579819
71.974998 52.724014
71.800003 52.680813
59.924999 52.698757
51.275002 52.414986
45.075001 52.306831
43.775002 52.475296
44.375000 52.400330
46.424999 52.395092
48.500000 52.440750
49.474998 52.474079
49.474998 52.498398
48.049999 52.516144
46.500000 52.380669
45.500000 52.479706
45.424999 52.453030
46.400002 52.532513
45.674999 52.442085
42.525002 52.623489
48.299999 52.656925
59.799999 52.483410
40.125000 52.455734
40.250000 52.583965
39.900002 52.677563
41.400002 52.646908
47.924999 52.575058
62.250000 52.770016
67.574997 52.862823
64.574997 52.633686
59.349998 52.416969
52.650002 52.209320
47.575001 52.206207
45.099998 52.055496
45.125000 52.143421
46.275002 52.059151
47.650002 52.195564
48.875000 52.690964
49.075001 52.607212
47.700001 52.447128
46.799999 52.528210
45.724998 52.636864
45.650002 52.617207
46.125000 52.553383
45.200001 52.754196
42.700001 52.752319
41.875000 52.701473
43.674999 52.763313
44.174999 52.758980
55.750000 52.805290
55.700001 52.740131
53.474998 52.643097
52.950001 52.869152
53.525002 52.737259
53.150002 52.789440
51.750000 52.679089
49.424999 52.598545
48.375000 52.638721
48.349998 52.668041
47.974998 52.541004
47.875000 52.497765
48.125000 52.515678
48.099998 52.429806
47.549999 52.466080
47.000000 52.591526
46.150002 52.534634
45.799999 52.641552
45.349998 52.571152
46.650002 52.519772
45.650002 52.284344
46.075001 52.557842
47.049999 52.609016
46.150002 52.547401
43.700001 52.502438
43.049999 52.618057
43.525002 52.702438
45.950001 52.665070
52.224998 52.786224
58.424999 52.676735
61.750000 52.547352
48.525002 52.502396
43.250000 52.519073
44.000000 52.679676
46.375000 52.598972
47.700001 52.441116
48.674999 52.127991
49.000000 52.097366
48.775002 52.223457
48.424999 52.364964
47.849998 52.369282
46.950001 52.372433
45.500000 52.374737
51.174999 52.673286
52.150002 52.742744
49.900002 52.645008
57.700001 52.821068
61.400002 52.850605
56.799999 52.971119
48.025002 52.960121
41.099998 52.704697
42.349998 52.765667
47.825001 52.661736
55.200001 52.684837
55.700001 52.602741
52.500000 52.592300
50.075001 52.535206
48.299999 52.493530
46.924999 52.463120
46.650002 52.341961
47.174999 52.451458
48.299999 52.333447
48.299999 52.346283
47.500000 52.405128
46.549999 52.645992
45.549999 52.772305
44.525002 52.913979
47.599998 52.769981
46.525002 52.615402
47.700001 52.552063
44.049999 52.604790
38.125000 52.593800
44.500000 52.783695
50.974998 52.823330
56.474998 52.901733
59.174999 52.859997
57.599998 52.631622
52.775002 52.613384
48.900002 52.550594
45.974998 52.504761
45.525002 52.520794
46.250000 52.532490
46.849998 52.541031
48.325001 52.547264
48.400002 52.403378
47.924999 52.496277
46.849998 52.366165
45.924999 52.370159
45.700001 52.323593
45.599998 52.388573
45.375000 52.485470
43.825001 52.605675
46.224998 52.544968
59.049999 52.401699
59.325001 52.396091
60.049999 52.540447
61.700001 52.596313
65.525002 52.785526
62.075001 52.824665
55.450001 52.853230
48.950001 52.577202
44.125000 52.524185
42.375000 52.584446
43.049999 52.430515
40.575001 52.318169
41.724998 52.236172
44.625000 52.275288
46.025002 52.155399
46.799999 52.216328
46.400002 52.260803
46.075001 52.194302
45.325001 52.343689
45.174999 52.403240
45.299999 52.199303
45.424999 52.495770
45.599998 52.514229
47.125000 52.428749
45.325001 52.564274
46.174999 52.514740
55.849998 52.676514
63.224998 52.646149
62.724998 52.673462
60.575001 52.643917
55.474998 52.770798
49.349998 52.714958
46.075001 52.525764
39.025002 52.486645
42.275002 52.458092
40.625000 52.585690
52.099998 52.579857
56.125000 52.526123
53.950001 52.536385
49.000000 52.345959
45.299999 52.404892
43.650002 52.447899
43.250000 52.627728
44.250000 52.660023
44.700001 52.485668
46.049999 52.358425
46.299999 52.315033
46.250000 52.530758
45.400002 52.391327
45.700001 52.487484
45.700001 52.557663
49.900002 52.509926
57.400002 52.722477
74.525002 52.778652
73.449997 52.869129
65.175003 52.984642
54.025002 52.969986
45.450001 52.959293
40.900002 52.951488
64.800003 52.846836
70.925003 52.819939
60.500000 52.602383
49.200001 52.443600
41.525002 52.327717
39.200001 52.342102
40.075001 52.451557
41.450001 52.432480
43.500000 52.418556
44.849998 52.507355
45.125000 52.572163
44.450001 52.619465
44.150002 52.406593
44.099998 52.597584
44.575001 52.638016
41.500000 52.618046
59.075001 52.702435
46.000000 52.665062
51.599998 52.736744
55.849998 52.640625
54.674999 52.669434
53.724998 52.640980
48.325001 52.570732
43.700001 52.568943
47.200001 52.617119
48.750000 52.553314
61.900002 52.407795
60.875000 52.499504
54.875000 52.269558
47.150002 52.250175
43.525002 52.334988
41.625000 52.396881
41.750000 52.442059
42.400002 52.475033
43.750000 52.697010
44.349998 52.710583
45.049999 52.621532
45.099998 52.358627
44.900002 52.315178
46.099998 52.382431
42.174999 52.480991
39.075001 52.552925
55.650002 52.605423
20.299999 52.643738
13.575000 52.721184
29.750000 52.678753
48.299999 52.647778
49.900002 52.625172
41.125000 52.608673
45.450001 52.695591
84.025002 52.660072
37.125000 52.485706
3.900000 52.506886
76.000000 52.274944
75.875000 52.254105
75.800003 52.337856
75.824997 52.300018
74.300003 52.371361
54.549999 52.423428
42.625000 52.609875
38.349998 52.597511
39.174999 52.539005
41.525002 52.595264
43.575001 52.586849
48.250000 52.729137
40.349998 52.832993
52.700001 52.809830
56.025002 52.792927
55.075001 52.780586
41.299999 52.821060
30.325001 52.652679
35.599998 52.678234
42.375000 52.845318
50.674999 52.868305
71.250000 52.885082
73.574997 52.897324
73.724998 52.757820
66.125000 52.705490
54.474998 52.617817
46.049999 52.454868
41.825001 52.335938
41.450001 52.397572
41.650002 52.492043
42.650002 52.363075
43.700001 52.367901
43.275002 52.470383
43.299999 52.693623
44.275002 52.757591
43.825001 52.705322
45.974998 52.865089
29.575001 52.882729
23.125000 53.044052
36.650002 53.013348
24.750000 52.941460
23.525000 52.987949
29.700001 52.823967
32.049999 52.803242
57.825001 52.738632
49.650002 52.889400
50.650002 52.603600
77.625000 52.493969
57.825001 52.364483
32.775002 52.269974
27.075001 52.398911
25.049999 52.443535
31.700001 52.426632
40.200001 52.463768
44.724998 52.490875
47.400002 52.510658
47.575001 52.624054
46.349998 52.657341
45.525002 52.780586
40.424999 52.672623
40.950001 52.692783
31.225000 52.658020
24.025000 52.731609
48.000000 52.686359
73.199997 52.603848
71.275002 52.741543
57.825001 52.644131
44.349998 52.721466
40.224998 52.728436
33.775002 52.684040
38.525002 52.800072
70.800003 52.736324
45.275002 52.689800
25.950001 52.556881
26.174999 52.509354
34.450001 52.474670
44.049999 52.350388
50.025002 52.259686
52.525002 52.242973
51.625000 52.428688
49.150002 52.267353
47.275002 52.298042
45.974998 52.419395
45.174999 52.409012
44.224998 52.549866
44.424999 52.603191
45.875000 52.592636
46.400002 52.782845
41.799999 52.822708
35.025002 52.851799
34.650002 52.873035
35.200001 52.839054
35.775002 52.863731
41.974998 52.733303
47.349998 52.638111
57.924999 52.519161
76.074997 52.382866
76.574997 52.382351
76.525002 52.283016
76.699997 52.210518
76.699997 52.157604
76.824997 52.316902
57.525002 52.383682
44.700001 52.382946
38.825001 52.431885
39.525002 52.517082
41.299999 52.628742
44.125000 52.611282
44.924999 52.598537
44.224998 52.589241
41.974998 52.532970
28.325001 52.590858
10.600000 52.484673
0.400000 52.704048
70.550003 52.814678
72.824997 52.845943
75.474998 52.967716
74.125000 52.908161
81.025002 52.765728
0.200000 52.661781
24.150000 52.635395
68.224998 52.566658
74.250000 52.565971
74.425003 52.466507
47.974998 52.443394
67.199997 52.525486
71.699997 52.486439
73.500000 52.457939
43.500000 52.338184
33.575001 52.399216
50.875000 52.443764
55.450001 52.525757
52.075001 52.486633
45.174999 52.458084
49.775002 52.585686
26.799999 52.629326
33.674999 52.611710
36.924999 52.796764
37.549999 52.931824
9.525000 52.783001
1.275000 51.387928
12.325000 51.606724
16.075001 51.815887
53.575001 52.067501
42.099998 52.053223
27.625000 52.191238
31.674999 52.094055
45.875000 52.270519
54.625000 52.102436
57.724998 52.078720
54.575001 52.308807
50.299999 52.278820
46.150002 52.306412
45.075001 52.376026
42.224998 52.575275
39.799999 52.671215
41.150002 52.741238
44.424999 52.445988
47.650002 52.576859
40.724998 52.523933
34.075001 52.584259
30.200001 52.578819
29.350000 52.772762
32.849998 52.765869
38.424999 52.661884
41.599998 52.585987
45.799999 52.530594
33.099998 52.737560
38.799999 52.690701
56.099998 52.607014
67.949997 52.595425
76.750000 52.685921
69.099998 52.653008
68.074997 52.431080
63.025002 52.417534
57.750000 52.457130
47.224998 52.337593
42.000000 52.250347
41.650002 52.236149
38.025002 52.473190
37.799999 52.299828
41.650002 52.420700
45.049999 52.508923
48.025002 52.474358
36.924999 52.745998
27.325001 52.795815
27.549999 52.881649
33.599998 52.993778
39.775002 52.976662
43.474998 52.865204
44.650002 52.882813
44.250000 52.994629
41.150002 52.927795
35.174999 52.681110
74.175003 52.501060
74.099998 52.369656
74.125000 52.323231
74.199997 52.190384
74.824997 52.241867
75.050003 52.279446
56.650002 52.455307
44.125000 52.583656
38.224998 52.578377
39.049999 52.574520
40.799999 52.769623
42.799999 52.516178
44.950001 52.727043
50.450001 52.781979
10.900000 52.772602
32.575001 52.864712
57.724998 52.832981
49.500000 52.908779
48.900002 52.716702
54.424999 52.873390
54.724998 52.938274
49.200001 52.886669
24.325001 52.848999
29.850000 52.870995
28.299999 52.837566
40.400002 52.763683
16.299999 52.660290
10.700000 52.634308
19.924999 52.664818
33.924999 52.637608
47.950001 52.716705
59.950001 52.724960
66.400002 52.780460
63.700001 52.672527
56.424999 52.494804
48.474998 52.414566
42.974998 52.652882
40.775002 52.727859
42.275002 52.634140
40.075001 52.664692
46.349998 52.884914
75.750000 52.946678
75.500000 53.338112
71.525002 53.079529
72.025002 53.138203
19.100000 53.181023
0.175000 53.113316
0.100000 52.915462
0.150000 52.919498
51.650002 52.823486
75.775002 52.654457
76.099998 52.630043
75.949997 52.513271
58.250000 52.527008
45.075001 52.537025
39.750000 52.494865
42.200001 52.563049
50.500000 52.414894
59.900002 52.405727
61.924999 51.904243
57.375000 52.230946
50.950001 52.370426
45.875000 52.373272
42.700001 52.474308
40.299999 52.449089
24.900000 52.628597
14.550000 52.710136
27.825001 52.670685
39.849998 52.839809
45.375000 52.963242
45.025002 53.003849
47.450001 52.984005
48.400002 53.068481
21.075001 52.981701
36.924999 52.819408
46.450001 52.700958
50.099998 52.515545
49.375000 52.528667
46.700001 52.538239
43.950001 52.594704
43.000000 52.536953
42.875000 52.395851
45.924999 52.540268
52.549999 52.546703
58.474998 52.551403
60.775002 52.752754
57.349998 52.899704
52.750000 52.957478
49.750000 52.554333
46.525002 52.556969
38.500000 52.707336
39.424999 52.619156
54.799999 52.653759
60.025002 52.679020
46.474998 52.796413
30.875000 52.832603
21.725000 52.710587
23.549999 52.621532
20.650000 52.556538
12.125000 52.657539
19.900000 52.632301
77.574997 52.564396
77.699997 52.564316
64.925003 52.465298
51.799999 52.491993
42.750000 52.511471
37.750000 52.327774
37.700001 52.441097
43.299999 52.325890
52.750000 52.439724
60.299999 52.473328
61.099998 52.695766
56.974998 52.759159
45.849998 52.755943
57.099998 52.753597
36.400002 52.652920
39.174999 52.876320
68.125000 52.989887
70.400002 53.023300
61.200001 53.047680
47.200001 52.966515
55.025002 52.956764
8.900000 52.949638
0.175000 52.796009
10.425000 52.683876
44.700001 52.503078
61.924999 52.420609
58.250000 52.360420
49.299999 52.217525
42.549999 52.360638
40.200001 52.366123
40.375000 52.271175
43.799999 52.449272
49.525002 52.529774
57.450001 52.539043
60.349998 52.694252
49.075001 52.758053
35.924999 52.854092
32.349998 52.874706
77.500000 52.790791
78.750000 52.779030
33.650002 52.671482
14.400000 52.592995
17.150000 52.585190
21.575001 52.727932
74.599998 52.733150
57.674999 52.291649
75.599998 52.216816
75.650002 52.162197
75.675003 52.171814
59.650002 52.178841
47.000000 52.085007
41.049999 52.016521
41.125000 52.065495
42.700001 52.200195
43.500000 52.298504
46.099998 52.568172
50.174999 52.616554
56.375000 52.552902
58.799999 52.308529
62.025002 52.328094
23.924999 52.589771
11.325000 52.731274
51.250000 52.735588
73.050003 52.738739
54.299999 52.938953
64.525002 52.936646
16.725000 52.934959
22.575001 52.587372
43.700001 52.581081
61.375000 52.724937
43.375000 52.681484
22.975000 52.649769
20.350000 52.824543
28.525000 52.754185
38.500000 52.356476
44.799999 52.264130
45.750000 52.196739
46.099998 52.295986
44.200001 52.417896
43.674999 52.506874
45.700001 52.472858
69.150002 52.448029
35.599998 52.578342
77.625000 52.623974
76.699997 52.607796
76.724998 52.744427
69.375000 52.794674
56.049999 52.831337
44.200001 52.759140
38.500000 52.706451
39.974998 52.519558
24.600000 52.482113
37.775002 52.454784
50.325001 52.335884
53.900002 52.397533
54.400002 52.492008
49.799999 52.363052
41.474998 52.367886
38.325001 52.272461
36.375000 52.252293
38.400002 52.336533
41.174999 52.348530
43.500000 52.406773
44.099998 52.449280
44.900002 52.579254
45.700001 52.674122
50.174999 52.397003
54.700001 52.541111
51.674999 52.497845
50.299999 52.466259
34.700001 52.393734
27.275000 52.637680
31.975000 52.667282
39.150002 52.688885
43.599998 52.704651
45.775002 52.716160
45.075001 52.774036
54.375000 52.717319
72.900002 52.626450
76.275002 52.609608
71.449997 52.498356
70.474998 52.516117
62.275002 52.430122
44.299999 52.416836
35.299999 52.456619
34.424999 52.238262
38.000000 52.177856
43.224998 52.133766
46.375000 52.250023
46.875000 52.384354
48.450001 52.383434
52.224998 52.085888
54.400002 52.462479
51.474998 52.588894
43.299999 52.631676
34.924999 52.613419
38.125000 52.748535
34.549999 52.797668
39.474998 52.734570
36.950001 52.787472
41.650002 52.925041
44.200001 52.877014
51.700001 52.742996
66.000000 52.645191
65.199997 52.524330
56.099998 52.535069
56.724998 52.592396
56.474998 52.634235
49.549999 52.565811
46.549999 52.416908
45.349998 52.506153
44.375000 52.521809
44.400002 52.483757
42.924999 52.505459
50.650002 52.521301
21.350000 52.631824
45.750000 52.712486
51.849998 52.820839
59.349998 52.899914
59.000000 52.759712
50.974998 52.756348
44.525002 52.605450
44.750000 52.594280
45.750000 52.635609
46.250000 52.467846
47.275002 52.444374
45.625000 52.328281
46.900002 52.441471
52.700001 52.474602
55.650002 52.498783
52.474998 52.466949
47.099998 52.592155
44.125000 52.584572
42.200001 52.579041
41.799999 52.575008
42.200001 52.621536
42.849998 52.556538
44.450001 52.509102
44.525002 52.721874
35.150002 52.679256
23.424999 52.747105
41.799999 52.846100
59.025002 52.819397
61.299999 52.997826
52.950001 53.078564
47.049999 52.939579
43.125000 52.640228
38.200001 52.619659
37.849998 52.753090
49.799999 52.751514
54.450001 52.799843
64.824997 52.736156
64.125000 52.739151
58.950001 52.642387
50.849998 52.472805
44.900002 52.151119
41.325001 52.262688
41.724998 52.393597
43.900002 52.291225
45.825001 52.315464
42.500000 52.333149
54.150002 52.593464
55.599998 52.387615
43.799999 52.385815
37.799999 52.582417
28.325001 52.676430
24.975000 52.646084
32.974998 52.722893
40.174999 51.344059
58.349998 51.822102
63.700001 51.973080
61.599998 52.182224
50.849998 52.186432
44.099998 52.288464
42.174999 52.263966
42.349998 52.196613
36.700001 52.147453
43.474998 52.111576
54.099998 52.134872
57.150002 52.250835
53.900002 52.335468
46.299999 52.397232
43.299999 52.491791
41.400002 52.610291
41.549999 52.696770
43.325001 52.858841
44.799999 52.878174
44.375000 52.793327
44.299999 52.780876
42.049999 52.672836
36.575001 52.841377
39.974998 52.914909
46.200001 52.869614
17.225000 52.836555
74.875000 52.812428
67.900002 52.943256
53.500000 52.939789
42.974998 52.788815
29.150000 52.728111
30.500000 52.782761
38.599998 52.723690
46.575001 52.680573
49.200001 52.599628
49.299999 52.342632
48.650002 52.254025
47.875000 52.288319
46.799999 52.263859
45.400002 52.344975
44.500000 52.453655
43.750000 52.532970
44.075001 52.293983
47.775002 52.317482
50.150002 52.483063
48.974998 52.504955
45.650002 52.520939
44.325001 52.532593
42.724998 52.689545
41.799999 52.507214
39.424999 52.522587
39.549999 52.286400
41.275002 52.311951
44.974998 52.132671
50.174999 52.100788
57.775002 52.176479
61.900002 52.380161
59.200001 52.479332
53.325001 52.304317
48.474998 52.325020
45.349998 52.241165
44.275002 52.427372
44.625000 52.464310
46.349998 52.491268
48.200001 52.708862
44.224998 52.768711
51.325001 53.208225
63.174999 52.935257
64.275002 52.884468
57.250000 52.896873
47.900002 52.757492
41.974998 52.655769
38.775002 52.532040
37.075001 52.540707
38.599998 52.349110
43.174999 52.456673
32.400002 52.436214
30.250000 52.520245
34.500000 52.433136
41.049999 52.468513
48.250000 52.444859
54.924999 52.674988
57.599998 52.645031
56.224998 52.573689
51.849998 52.670059
47.799999 52.690910
41.075001 52.755615
53.750000 52.654400
57.000000 52.679485
52.750000 52.895710
41.450001 52.806126
43.474998 52.740738
44.875000 52.742500
35.375000 52.743786
28.049999 52.546810
24.375000 52.650440
37.250000 52.528156
74.875000 52.488388
58.000000 52.508846
33.099998 52.325859
34.650002 52.390221
51.000000 52.437199
59.299999 52.421997
67.050003 52.509869
66.500000 52.376083
56.650002 52.377396
47.174999 52.130962
45.000000 52.247978
46.625000 52.432343
48.625000 52.517418
42.025002 52.480549
61.000000 52.453644
70.650002 52.582439
40.875000 52.577488
22.700001 52.524391
23.924999 52.535114
27.650000 52.740864
36.150002 52.792072
44.200001 52.730480
42.674999 52.636055
41.500000 52.666096
48.724998 52.490105
31.549999 52.262699
51.875000 52.195686
61.775002 52.295219
51.049999 52.169937
45.025002 52.127991
42.049999 52.196323
40.875000 52.147243
42.099998 52.160908
44.174999 52.220356
45.525002 51.917385
48.174999 52.092102
52.325001 52.269096
57.200001 52.447746
54.299999 52.578140
44.924999 52.772266
41.125000 52.765507
44.474998 52.562656
40.700001 52.612530
39.825001 52.549969
42.174999 52.702229
45.349998 52.714386
46.750000 52.772747
47.400002 52.666901
47.575001 51.204231
38.450001 51.670570
56.625000 51.763527
78.074997 51.930328
71.724998 52.101540
59.099998 52.226509
47.450001 52.317711
39.825001 52.384274
37.900002 52.383381
39.599998 52.234283
42.275002 52.273907
44.500000 52.203869
46.275002 52.202229
49.099998 52.299992
52.700001 52.470299
56.325001 52.545124
51.849998 52.698685
52.599998 52.909725
32.500000 52.865829
44.325001 52.883278
50.625000 52.797050
52.625000 52.932037
44.224998 52.882114
34.500000 52.895161
42.500000 52.706764
53.799999 52.519787
73.724998 52.531757
65.375000 52.491016
66.324997 52.362324
38.150002 52.268398
7.300000 52.348282
1.650000 52.406593
13.275000 52.399662
33.099998 52.493565
46.174999 52.215740
51.275002 52.309853
50.849998 52.329060
50.625000 52.590481
51.400002 52.682312
62.049999 52.798817
71.375000 52.834358
66.474998 52.909790
56.849998 52.964840
49.099998 52.856579
45.349998 52.827045
44.700001 53.003407
46.000000 53.082638
47.849998 52.992027
49.400002 52.826946
50.799999 52.706459
43.650002 52.222687
53.599998 52.364403
54.474998 52.319393
59.974998 52.187584
58.349998 52.289307
56.674999 52.264580
41.750000 52.296024
24.875000 52.269493
26.275000 52.299599
31.475000 52.321579
37.825001 52.337620
46.474998 52.250370
53.549999 52.236164
71.050003 52.324764
60.500000 52.488377
26.625000 52.360401
4.950000 52.168034
7.375000 52.373993
23.750000 52.524315
40.750000 52.535057
50.625000 52.542912
54.950001 52.746552
53.400002 52.746742
51.500000 52.796356
48.025002 52.684135
47.375000 52.651703
43.099998 52.380642
40.750000 52.182808
39.799999 52.038422
40.650002 52.081474
43.775002 52.112900
46.424999 52.086357
46.674999 52.165943
54.775002 52.125065
54.424999 52.342632
49.525002 52.402462
47.950001 52.396652
52.375000 52.639809
57.650002 52.817276
59.775002 52.649918
56.650002 52.725697
52.325001 52.731518
49.924999 52.834724
46.974998 52.613178
46.974998 52.550442
48.174999 52.405697
50.325001 52.448490
50.674999 52.529202
49.375000 52.489147
50.224998 52.360962
50.724998 52.267403
49.224998 52.298073
47.400002 52.270985
46.400002 52.300690
46.849998 52.371853
47.200001 52.374310
47.799999 52.425587
48.049999 52.463001
48.750000 52.440834
52.549999 52.523621
60.150002 52.485073
65.900002 52.555901
62.275002 52.508640
53.825001 52.721539
49.875000 52.777966
48.099998 52.324356
47.500000 52.438606
48.200001 52.719902
49.825001 52.776772
49.799999 52.719315
49.500000 52.627903
51.500000 52.808582
63.700001 52.792019
65.125000 52.730446
64.375000 52.685509
56.775002 52.603226
50.224998 52.592659
46.674999 52.436504
45.299999 52.322540
45.075001 52.239357
46.200001 52.327087
51.200001 52.440594
59.275002 52.523441
63.924999 52.484947
62.775002 52.456852
57.575001 52.634262
51.900002 52.615307
50.575001 52.601471
47.599998 52.789291
50.200001 52.827415
51.549999 52.954197
51.599998 53.046730
52.450001 52.965820
51.375000 52.956257
49.049999 52.701874
47.325001 52.714130
44.450001 52.673595
42.900002 52.742973
43.075001 52.694649
47.125000 52.461464
47.900002 52.439713
48.125000 52.324879
47.174999 52.438984
46.500000 52.472786
48.549999 52.447971
55.500000 52.627781
61.674999 52.660061
62.875000 52.733097
58.750000 52.786400
54.700001 52.775826
45.224998 52.768105
42.900002 52.663513
48.400002 52.587185
46.549999 52.531467
47.750000 52.639240
48.375000 52.717896
48.275002 52.725830
46.500000 52.632664
44.875000 52.663620
43.825001 52.686214
42.025002 52.653221
44.775002 52.579666
48.599998 52.575466
31.075001 52.671352
77.324997 52.642380
78.750000 52.621231
78.800003 52.556316
66.150002 52.508942
51.349998 52.474369
44.750000 52.350170
47.875000 52.358490
54.325001 52.562473
61.474998 52.612396
58.974998 52.648823
45.924999 52.576454
39.150002 52.523636
41.150002 52.633530
44.825001 52.664253
48.075001 52.587719
49.400002 52.581337
49.525002 52.675640
46.525002 52.249676
43.599998 52.235664
44.700001 52.175957
44.325001 52.181858
43.775002 52.037727
43.700001 52.031490
43.974998 51.977467
44.400002 52.135952
45.125000 52.251621
44.900002 52.138126
44.799999 52.203728
44.275002 52.350563
43.974998 52.457733
44.075001 52.486465
46.349998 52.507439
51.950001 52.720661
56.575001 52.777328
55.900002 52.818687
49.099998 52.848866
54.825001 52.821419
60.450001 52.900337
45.325001 52.562103
35.250000 52.513165
35.075001 52.427971
42.974998 52.464745
51.275002 52.590546
52.450001 52.632881
76.250000 52.564819
76.050003 52.614105
76.050003 52.699551
64.175003 52.662960
58.799999 52.586777
43.549999 52.135338
32.325001 52.251171
30.025000 52.434666
32.799999 52.568592
36.625000 52.567379
39.650002 52.665455
43.375000 52.588596
46.525002 52.631462
51.900002 52.860661
54.700001 52.978462
6.125000 53.014957
36.099998 52.992111
60.650002 52.925964
65.275002 52.877682
71.724998 52.743488
20.225000 52.645550
26.225000 52.524586
16.924999 52.535259
0.250000 52.543056
0.200000 52.647694
18.600000 52.476677
39.375000 52.549770
51.275002 52.553646
54.525002 52.309071
52.150002 52.377972
48.150002 52.428257
45.450001 52.464954
44.599998 52.491737
44.549999 52.709206
45.299999 52.719482
45.924999 52.529068
46.250000 52.489052
46.174999 52.459850
42.174999 52.685932
64.849998 52.801456
69.974998 52.885773
66.150002 52.848351
58.375000 52.821037
51.450001 52.999023
47.099998 52.733089
49.799999 52.637962
63.500000 52.815926
29.625000 52.945805
77.525002 52.842686
77.375000 52.767422
77.500000 52.663017
77.525002 52.636295
67.050003 52.468349
49.900002 52.147865
40.424999 52.111877
37.599998 52.234047
39.575001 52.372692
42.775002 52.473881
45.500000 52.547733
45.974998 52.502678
46.275002 52.370834
37.525002 52.472530
56.875000 52.497269
75.675003 52.713234
76.224998 52.870865
55.849998 52.985909
46.049999 52.970913
41.700001 52.811527
42.650002 52.794167
45.549999 52.484615
45.974998 52.357655
44.125000 52.264984
70.474998 52.296314
58.500000 52.467613
13.900000 52.543163
11.800000 52.499340
25.350000 52.368401
44.349998 52.470749
54.500000 52.446491
53.625000 52.379307
49.799999 52.429234
46.174999 52.564629
44.125000 52.564491
43.650002 52.564384
42.775002 52.564304
43.375000 52.366333
33.575001 52.271324
52.625000 52.399899
75.525002 52.444260
79.000000 52.575592
15.050000 52.671448
13.250000 52.691929
28.600000 52.508957
38.474998 52.622810
67.824997 52.656433
38.474998 52.631489
0.175000 52.613285
44.099998 52.599995
24.799999 52.392384
39.549999 52.488247
77.599998 52.459263
77.074997 52.042274
75.574997 52.232731
76.724998 52.272774
73.349998 52.301998
35.950001 52.372807
21.549999 52.325527
24.475000 52.389980
44.299999 52.437019
56.974998 52.471355
59.974998 52.595371
55.349998 52.537441
53.099998 52.594124
41.174999 52.586014
28.375000 52.778011
30.750000 52.868660
71.275002 52.934818
74.925003 52.686230
75.675003 52.900627
81.275002 52.908672
0.225000 52.914539
0.200000 53.017784
0.150000 53.093136
0.200000 52.801777
42.674999 52.836521
74.974998 52.762928
77.750000 52.560776
67.224998 52.512192
54.525002 52.427261
45.125000 52.464226
41.500000 52.491203
41.474998 52.560379
51.900002 52.610867
53.349998 52.647705
63.549999 52.872513
11.075000 53.036587
24.850000 53.057381
38.325001 52.924118
56.200001 52.925819
51.924999 53.075497
53.299999 53.036297
54.500000 52.958210
31.625000 52.901215
19.950001 52.760662
21.025000 52.559120
34.275002 51.076096
77.199997 51.379128
76.125000 51.352901
76.074997 51.630634
75.800003 51.833336
75.675003 51.882320
75.750000 52.165466
75.775002 52.174206
76.500000 51.883705
46.450001 52.067520
32.349998 52.201675
30.450001 52.299587
34.049999 52.470005
40.474998 52.346992
43.450001 52.504604
39.325001 52.471199
46.625000 52.545776
48.424999 52.550728
57.950001 52.752258
18.825001 52.849861
7.350000 52.822140
16.650000 52.505035
33.875000 52.570469
46.375000 52.420311
48.299999 52.013851
62.174999 52.113026
77.550003 52.234886
77.250000 52.274349
73.800003 52.154709
58.575001 52.215824
46.450001 52.161476
41.474998 52.319729
41.125000 52.385750
43.625000 51.988613
45.849998 52.144089
47.200001 52.257557
47.625000 52.439331
47.275002 52.572002
46.349998 52.767780
48.025002 52.663280
20.299999 52.488049
12.700000 52.558071
33.224998 52.559696
48.525002 52.659847
58.625000 52.683464
55.500000 52.898609
53.700001 52.758762
52.099998 52.656696
38.549999 52.681160
32.599998 52.303181
35.599998 52.324192
42.375000 52.389008
51.275002 52.436310
57.650002 52.470833
58.125000 52.496033
55.099998 52.365986
50.724998 52.122631
47.224998 52.093460
45.500000 52.072170
45.575001 52.106113
45.900002 52.378273
47.700001 52.477955
49.000000 52.550705
43.450001 52.504845
41.174999 52.768250
38.849998 52.812057
43.750000 52.695595
46.299999 52.610596
46.500000 52.598034
45.525002 52.489910
45.375000 52.509953
45.650002 52.425625
45.950001 52.116680
46.250000 52.237553
45.849998 52.078373
45.799999 52.061161
46.400002 51.900162
49.875000 52.079525
55.625000 52.259914
59.224998 52.391571
58.200001 52.388706
53.799999 52.089733
50.375000 52.267368
47.900002 52.347534
46.849998 52.356560
46.950001 52.561066
42.549999 52.561886
45.025002 52.562485
55.674999 52.463963
58.500000 52.540501
54.200001 52.596352
48.500000 52.439205
48.599998 52.324505
31.825001 52.290279
17.500000 51.819981
49.099998 51.823093
61.750000 51.874844
61.125000 51.714699
56.200001 51.993656
51.750000 52.197247
47.525002 52.197395
44.525002 52.246983
44.250000 52.332653
47.799999 52.395184
54.625000 52.341862
58.700001 52.500862
58.325001 52.567425
49.299999 52.616005
49.500000 52.552505
47.174999 52.407200
42.474998 52.350628
44.174999 52.408302
46.799999 52.450397
48.500000 52.233719
48.974998 52.273495
49.150002 52.203568
44.250000 52.300964
46.650002 52.273098
48.525002 52.302231
48.275002 52.372974
46.799999 52.127731
45.500000 52.245625
45.424999 52.232708
45.400002 52.272755
45.450001 52.301987
45.349998 52.224365
45.075001 52.167709
45.049999 52.175842
46.875000 52.429173
51.700001 52.267712
57.224998 52.496223
58.375000 52.564045
45.875000 52.811451
46.525002 52.843586
47.900002 52.768074
47.299999 52.663490
43.150002 52.587166
47.849998 52.679893
48.724998 52.401211
46.950001 52.445217
42.525002 52.427860
28.674999 52.464661
22.075001 52.442047
26.299999 52.425545
34.900002 52.364017
42.450001 52.220158
46.900002 52.362553
48.400002 52.466476
47.625000 52.344414
46.250000 52.502720
45.250000 52.618263
41.849998 52.653111
42.075001 52.431152
70.175003 52.664986
74.750000 52.736687
70.650002 52.937462
62.250000 53.034515
55.599998 53.055866
33.075001 53.021976
62.000000 52.848801
77.650002 52.821369
80.425003 52.405514
67.074997 52.547314
8.100000 52.601326
0.150000 52.690231
13.475000 52.606674
35.049999 52.644653
47.174999 52.523937
49.750000 52.485310
48.575001 52.506596
46.575001 52.423172
45.525002 52.461246
45.400002 52.489033
46.025002 52.459835
41.325001 52.586964
36.325001 52.531311
79.050003 52.589649
79.449997 52.830139
74.800003 52.956188
70.300003 52.949219
70.300003 52.746220
43.474998 52.647537
71.775002 52.575520
14.200000 52.671394
58.750000 52.642410
37.549999 52.571777
26.799999 52.569706
30.450001 52.667145
39.325001 52.639309
46.849998 52.618988
50.174999 52.554684
49.049999 52.557228
46.575001 52.410648
44.875000 52.105755
43.875000 52.130619
44.799999 52.247726
44.974998 52.382675
45.525002 52.481171
34.474998 52.553051
69.425003 52.605518
77.900002 52.792248
64.250000 52.879047
46.900002 52.942402
31.350000 53.038120
65.574997 53.009022
77.900002 52.987782
70.875000 53.170197
58.299999 53.055931
0.125000 52.972538
71.974998 52.862198
75.125000 52.732185
75.050003 52.686775
75.099998 52.653633
58.950001 52.629444
46.825001 52.611797
39.700001 52.549431
37.500000 52.602875
39.224998 52.542923
41.674999 52.499161
43.575001 52.467220
44.349998 52.641834
42.099998 52.719791
6.775000 52.232418
41.150002 52.470455
0.200000 52.743153
0.200000 52.892696
0.200000 53.150280
29.674999 53.288792
60.674999 53.290928
74.650002 52.995609
72.099998 53.076954
60.575001 53.086838
49.875000 52.896141
43.474998 52.756962
40.724998 52.605896
56.525002 52.792530
48.599998 52.780296
45.325001 52.771374
46.025002 52.270061
48.000000 52.448456
46.500000 52.578655
49.375000 52.574726
52.025002 52.571854
46.349998 52.718197
45.174999 52.775532
44.724998 52.619453
43.400002 52.802418
62.674999 52.886478
39.049999 52.947823
15.400000 52.992592
33.450001 52.926308
54.724998 52.927414
78.199997 52.779789
78.074997 52.721516
76.175003 52.431599
56.250000 52.615833
57.200001 52.849251
27.600000 52.970131
37.974998 52.860443
67.175003 52.780388
53.849998 52.919872
42.724998 52.724804
36.724998 52.681389
35.125000 52.748665
37.625000 52.649323
40.849998 52.725262
43.025002 52.632244
44.724998 52.663315
44.924999 52.685989
44.950001 52.653061
41.049999 52.431110
50.150002 52.516518
70.625000 52.677814
43.849998 52.696568
23.025000 52.957657
24.424999 52.950294
41.375000 52.845966
29.475000 52.769821
50.250000 52.912159
81.150002 52.917088
74.175003 52.821732
75.125000 52.702652
47.025002 52.615742
11.500000 52.552315
38.700001 52.506020
70.875000 52.422752
77.300003 52.263023
53.375000 52.393841
29.225000 52.489315
23.174999 52.460041
29.875000 52.438671
40.375000 52.571522
50.200001 52.569519
59.125000 52.370136
74.474998 52.620453
56.700001 52.902103
49.049999 53.058186
43.575001 53.221581
47.974998 53.192394
49.799999 53.270050
53.224998 53.227779
50.599998 53.097961
72.699997 52.805298
20.100000 52.839100
0.250000 52.913246
0.325000 52.917877
0.175000 52.772827
60.400002 52.666958
73.650002 52.589691
73.675003 52.483818
75.199997 52.604462
75.574997 52.692516
58.500000 52.707306
35.750000 52.619141
35.450001 52.851665
38.275002 52.971897
45.599998 52.861729
51.625000 52.781319
48.775002 52.920555
45.349998 52.923214
45.849998 53.073597
27.525000 53.232830
16.100000 53.497478
0.175000 53.492718
0.225000 53.439770
0.200000 53.450596
81.300003 53.507980
61.325001 53.401424
54.000000 53.373131
65.800003 53.105083
82.500000 52.958939
3.350000 52.505917
0.200000 52.571117
0.200000 52.767136
0.175000 52.910206
24.900000 52.569309
47.250000 52.518425
59.000000 52.629719
66.000000 52.710949
69.500000 52.770237
66.875000 52.813507
59.500000 52.845089
52.500000 53.016571
46.724998 52.993294
50.650002 53.025787
50.174999 53.049496
49.875000 52.918362
46.200001 52.872135
46.099998 52.887875
43.325001 53.097282
42.000000 53.151157
42.400002 52.596729
43.974998 52.637398
43.849998 52.716549
46.049999 52.922760
82.949997 52.924824
74.849998 52.827374
78.849998 52.756252
78.875000 52.852779
64.349998 52.873749
47.575001 52.790092
38.500000 52.729046
36.099998 52.733963
41.875000 52.638592
51.650002 52.667946
57.625000 52.689369
57.174999 52.952404
53.349998 52.649582
48.099998 52.873890
44.474998 52.839680
53.799999 52.814713
33.400002 52.994400
47.150002 52.878151
50.450001 52.941750
57.275002 53.186081
53.700001 53.215965
29.700001 53.287258
61.349998 53.289810
74.375000 53.242195
66.125000 53.207443
79.300003 52.390411
34.250000 52.486813
0.200000 52.507694
0.150000 52.325020
50.125000 52.439087
70.000000 52.522343
65.175003 52.484142
53.299999 52.703663
44.025002 52.665955
41.375000 52.638443
45.025002 52.766792
48.875000 52.860474
50.025002 52.681446
48.799999 52.748703
46.049999 52.748310
43.349998 52.797501
42.575001 52.684967
41.549999 52.701797
42.575001 52.664597
45.674999 52.637451
49.875000 52.815556
36.900002 52.797104
40.849998 52.882591
43.950001 52.747070
43.299999 52.945034
40.275002 52.941086
38.924999 52.839245
27.450001 52.962826
55.174999 52.805626
0.175000 52.888813
0.200000 52.751614
0.175000 52.799915
0.100000 52.686733
0.100000 52.554646
16.400000 52.755119
46.724998 52.802471
63.750000 52.837032
67.000000 52.812775
61.049999 52.894035
52.799999 52.804901
46.549999 52.789326
43.275002 52.728485
42.799999 52.881992
40.275002 52.994030
39.625000 53.026321
46.025002 53.049885
48.849998 53.363960
49.775002 53.395271
49.099998 53.071770
47.625000 52.984100
42.049999 52.969593
57.325001 52.959011
82.375000 52.951275
84.074997 52.945637
82.175003 52.892044
55.049999 52.902405
36.474998 52.761532
32.275002 52.658718
36.875000 52.534199
43.775002 52.542278
48.474998 52.647129
52.075001 52.575218
53.174999 52.720650
52.424999 52.628880
50.075001 52.462940
47.650002 52.539745
46.549999 52.546329
46.250000 52.749050
46.099998 52.798042
45.625000 52.982239
46.625000 52.968235
47.775002 53.007496
45.299999 53.036144
45.049999 52.710705
40.799999 52.720577
39.525002 52.678310
40.075001 52.845375
38.424999 52.868347
77.750000 52.835629
81.525002 52.712795
81.224998 52.326271
73.250000 52.489479
41.849998 52.410683
31.075001 52.402653
32.250000 52.446266
39.224998 52.478100
46.775002 52.501335
51.474998 52.617252
51.950001 52.652370
50.099998 52.331654
47.825001 52.344975
46.924999 52.453655
49.650002 52.730888
34.825001 52.883747
32.250000 52.945827
38.825001 52.991142
41.900002 52.727341
43.125000 52.732719
45.674999 52.885086
47.849998 52.847851
49.224998 52.721714
49.500000 52.827572
37.400002 52.904831
63.650002 52.911743
75.349998 52.817825
64.775002 52.551365
52.349998 52.604282
43.575001 52.543949
41.674999 52.499916
43.900002 52.418301
48.500000 52.457687
51.000000 52.535915
51.474998 52.147697
50.474998 52.210712
48.424999 52.405144
46.875000 52.547047
47.174999 52.601131
47.775002 52.591129
51.950001 52.930183
37.250000 52.930244
51.549999 53.078720
30.250000 52.840736
26.275000 52.914440
33.275002 52.918755
39.349998 52.773468
45.849998 52.766384
64.324997 52.612782
78.324997 52.599628
66.150002 52.293156
57.549999 52.316879
58.375000 52.334190
57.250000 52.247860
54.950001 52.432251
52.525002 52.467869
51.450001 52.493866
50.049999 52.512840
49.099998 52.576168
48.424999 52.276035
48.275002 52.452820
46.750000 52.482883
48.924999 52.603786
40.525002 52.543587
33.099998 52.598606
34.174999 52.589283
29.924999 52.532997
33.174999 52.640358
39.924999 52.471321
45.450001 52.446903
69.699997 52.528046
79.650002 52.636749
78.300003 52.518166
78.574997 52.283176
78.199997 52.359074
78.000000 52.266029
77.349998 52.297073
76.949997 52.369213
73.224998 52.619781
73.625000 52.604740
66.199997 52.445324
52.000000 52.427937
44.299999 52.365768
41.000000 52.419346
38.049999 52.507931
42.575001 52.572586
45.400002 52.520817
35.500000 52.631466
36.000000 52.712223
37.424999 52.672211
27.475000 52.643005
31.600000 52.572212
38.349998 52.619499
50.000000 52.604527
47.075001 52.593609
63.099998 52.536156
62.549999 52.593185
49.825001 52.337933
44.400002 51.953724
37.549999 51.920700
38.299999 52.045040
42.950001 52.135788
46.200001 52.053581
53.724998 52.142021
54.700001 52.107616
52.500000 52.329891
50.799999 52.343689
49.799999 52.155838
47.650002 52.414574
46.599998 52.454967
47.200001 52.533932
51.924999 52.641041
59.025002 52.620251
69.050003 52.704044
27.775000 52.319885
23.799999 52.336384
57.825001 52.051544
70.900002 52.190014
63.775002 52.340561
40.599998 52.252510
60.924999 52.287205
47.000000 52.411491
39.825001 52.452721
39.474998 52.136456
43.049999 52.153030
47.025002 52.264076
49.950001 52.394611
50.724998 52.440399
50.700001 52.374859
50.174999 52.376503
48.974998 52.080826
48.924999 52.062950
48.674999 52.049904
48.150002 52.040382
47.599998 52.181870
46.974998 52.334614
42.775002 52.446087
58.224998 52.428497
57.000000 52.564087
36.474998 52.465130
19.025000 52.491871
11.100000 52.560863
21.400000 52.759655
40.250000 52.706825
61.625000 52.668270
52.875000 52.739086
79.675003 52.345459
77.150002 52.454006
78.425003 52.335312
78.599998 52.248684
78.400002 52.185455
78.474998 52.238266
56.299999 52.326294
40.799999 52.192619
34.575001 52.243504
34.500000 51.983757
34.224998 52.190022
38.900002 52.291084
45.200001 52.315365
48.500000 52.530998
48.325001 52.688381
49.750000 52.753765
35.474998 52.405655
26.250000 52.646378
49.049999 52.723110
65.125000 52.729630
64.625000 52.734390
63.750000 52.539955
61.075001 52.694912
57.099998 52.758533
40.000000 52.755486
34.700001 52.357430
58.325001 52.066906
43.900002 52.201229
32.750000 52.200302
33.849998 52.249107
40.349998 52.334206
46.549999 52.297356
49.924999 52.122021
50.049999 52.241451
48.900002 52.674969
47.250000 52.694500
45.775002 52.312923
36.900002 52.430256
53.000000 52.713810
61.174999 52.970242
54.549999 53.058437
70.474998 52.974365
79.675003 53.011967
43.275002 52.940453
67.500000 53.086174
67.349998 53.044098
61.099998 52.914425
42.000000 52.968220
74.349998 52.661129
74.474998 52.733871
75.875000 52.786964
64.525002 52.677284
51.299999 52.696182
35.099998 52.512066
27.825001 52.476646
31.150000 52.401310
37.000000 52.445290
43.049999 52.279472
46.900002 52.405849
46.825001 52.399120
45.400002 52.542652
44.299999 52.647404
43.325001 52.723866
38.750000 52.631222
53.349998 52.613094
62.500000 52.847252
52.474998 53.018154
45.349998 52.994450
32.174999 52.927666
35.224998 52.928406
50.375000 52.681553
52.349998 52.600342
31.700001 52.491589
31.799999 52.412224
0.100000 52.255337
0.150000 52.239792
2.100000 52.178974
31.725000 52.134583
57.650002 52.201141
68.474998 52.200241
67.525002 52.397495
61.275002 52.442505
54.450001 52.524837
49.724998 52.485962
46.650002 52.358635
45.549999 52.513100
45.424999 52.576359
47.625000 52.573051
76.949997 52.719070
77.375000 52.479290
77.474998 52.601158
73.449997 52.690109
54.424999 52.656071
37.224998 52.433308
39.049999 52.419159
25.275000 52.408840
12.850000 52.351826
74.599998 52.409172
74.550003 52.253113
74.474998 52.386608
74.824997 52.385086
63.150002 52.532406
45.900002 52.590450
37.450001 52.533852
35.650002 52.542027
38.349998 52.498512
43.775002 52.714146
49.174999 52.673611
52.950001 52.742985
59.849998 52.892582
54.974998 52.952282
49.174999 52.797932
54.075001 52.685284
32.049999 52.702026
31.549999 52.813198
34.599998 52.943821
30.825001 52.692802
52.650002 52.707512
41.025002 52.619293
53.799999 52.703339
51.075001 52.566765
44.575001 52.516563
40.250000 52.529411
38.700001 52.538780
40.275002 52.545628
41.924999 52.550617
43.750000 52.504776
43.875000 52.570286
43.275002 52.420177
43.500000 52.508537
43.049999 52.424591
43.275002 52.561237
43.500000 52.611496
44.650002 52.648170
38.275002 52.674934
45.275002 52.496559
57.825001 52.712723
63.875000 52.771534
73.925003 52.715492
75.125000 52.674595
70.250000 52.644745
9.175000 52.721912
38.200001 52.530846
27.850000 52.391392
17.450001 52.438053
24.400000 52.373150
29.325001 52.375256
36.599998 52.426277
44.325001 52.463512
47.549999 52.490685
47.750000 51.916771
45.375000 51.448425
43.700001 51.799305
42.974998 51.956444
43.799999 51.873207
44.474998 51.960899
44.525002 52.123859
53.525002 52.242798
48.049999 52.379078
67.425003 52.577499
41.299999 52.524403
40.349998 52.634087
44.424999 52.664661
21.325001 52.588017
27.674999 52.581551
38.299999 52.675797
47.025002 52.645622
51.650002 52.623600
55.325001 52.558048
55.150002 52.609165
54.075001 52.547516
53.750000 52.601471
51.525002 52.541897
50.099998 52.547894
49.150002 52.552269
47.450001 52.604942
46.799999 52.544430
46.049999 52.401306
45.775002 52.544250
46.400002 52.401173
46.525002 52.445187
46.400002 52.675228
41.849998 52.942085
70.550003 52.988407
76.599998 52.972733
58.224998 52.911819
42.400002 52.867363
23.625000 52.735958
0.125000 52.739006
40.025002 52.493835
71.150002 52.413860
73.800003 52.454453
63.349998 52.484074
50.474998 52.555176
42.450001 52.557583
39.275002 51.025490
43.299999 51.391678
49.625000 51.609463
55.150002 52.065281
55.799999 52.298996
53.325001 52.420094
52.900002 52.508476
52.674999 52.770905
40.674999 52.863472
27.275000 52.881550
24.725000 52.597874
31.950001 52.786667
40.375000 52.825497
52.674999 53.002277
39.950001 52.883904
25.924999 52.748028
21.600000 52.747818
47.025002 52.648705
45.575001 52.477413
41.650002 52.352394
41.000000 52.409592
40.650002 52.253414
36.599998 52.139435
30.350000 52.204685
32.099998 52.153347
36.549999 52.363274
41.474998 52.071175
45.474998 52.154865
47.025002 52.265423
47.450001 52.395588
48.424999 52.441116
50.150002 52.573296
54.650002 52.768734
59.549999 52.812405
55.099998 52.695847
56.525002 52.412861
57.474998 52.552677
56.750000 52.753681
52.625000 52.801426
48.200001 52.786789
47.724998 52.677151
42.325001 52.745567
40.724998 52.498631
77.000000 52.516315
77.525002 52.479748
77.724998 52.502537
77.750000 52.519173
58.424999 52.531311
38.000000 52.441208
24.350000 52.424927
25.000000 52.512005
33.200001 52.476604
41.775002 52.450764
45.974998 52.332943
47.150002 52.395393
45.049999 52.440968
51.500000 52.523716
42.500000 52.485149
31.174999 52.259083
57.424999 52.588882
63.974998 52.681145
73.625000 52.649521
70.675003 52.774887
48.250000 52.866379
32.575001 52.784718
54.025002 52.824078
78.000000 52.704369
64.574997 52.666470
28.350000 52.391422
10.875000 52.289639
19.500000 52.116390
33.799999 52.237339
40.549999 52.127697
74.125000 52.146637
77.300003 52.012024
62.325001 52.012733
53.400002 52.260647
39.674999 52.293152
35.750000 52.316872
36.375000 52.383663
40.900002 52.333447
46.049999 52.395763
48.849998 52.441242
46.000000 52.424953
49.900002 52.462551
50.424999 52.341549
52.099998 52.451157
60.025002 52.531147
52.799999 52.787445
56.000000 52.925026
58.700001 52.876995
45.599998 52.940907
31.125000 52.789627
56.174999 52.827660
27.750000 52.756458
33.700001 52.704494
57.375000 52.864483
71.949997 52.783329
69.824997 52.674622
57.750000 52.644768
46.174999 52.721931
39.674999 52.629814
37.750000 52.463623
38.724998 52.342331
40.599998 52.253807
42.799999 52.337639
44.224998 52.002983
44.549999 52.055614
44.400002 52.143505
43.775002 52.306614
43.299999 52.475140
43.799999 52.499172
43.375000 51.873482
43.825001 52.208496
43.349998 52.354042
43.825001 52.509750
52.599998 52.425480
21.200001 52.611366
27.500000 52.796513
59.200001 52.882160
61.950001 52.944672
60.150002 52.891338
61.099998 52.802933
54.299999 52.886852
40.400002 52.898617
28.025000 52.857723
31.575001 52.629959
36.375000 52.711128
43.375000 52.671410
45.575001 52.642422
45.549999 52.621265
44.799999 52.655304
44.375000 52.630661
43.575001 52.612686
43.549999 52.599560
43.549999 52.639465
43.549999 52.470665
43.775002 52.347473
43.625000 52.010162
43.575001 52.159813
44.025002 52.269035
43.875000 52.398228
44.424999 52.393562
44.974998 52.390160
45.174999 52.536102
47.750000 52.543671
54.325001 52.648148
59.549999 52.823364
59.375000 53.050201
54.674999 53.166271
50.049999 53.102547
45.849998 53.105518
48.275002 53.206650
38.974998 53.181499
45.750000 52.965225
51.625000 53.005295
49.125000 53.084019
46.799999 53.042515
44.525002 52.863796
37.674999 52.733353
41.525002 52.539188
12.825000 52.644878
10.525000 52.623058
61.575001 52.607128
77.199997 52.595505
77.250000 52.784935
60.075001 52.774757
44.150002 52.717846
36.125000 52.676311
34.599998 52.695477
38.875000 52.214676
41.825001 52.358559
45.200001 52.315128
51.375000 52.530830
58.500000 52.638775
60.125000 52.668079
53.700001 52.689472
47.125000 52.606121
44.900002 52.693729
46.000000 52.658714
45.625000 52.633156
45.250000 52.762936
45.099998 52.758698
45.450001 52.805084
44.625000 52.838943
43.125000 52.764690
53.224998 52.611546
30.975000 52.648205
19.500000 52.773922
6.075000 52.964630
82.275002 53.153297
26.375000 53.340477
0.100000 53.328651
0.150000 53.171581
7.000000 53.007469
33.775002 52.838215
16.575001 52.962078
78.425003 53.052479
56.025002 53.019501
39.724998 52.995426
38.750000 52.878902
49.525002 52.843338
60.525002 52.718422
63.724998 52.726212
59.900002 52.632938
54.650002 52.812256
50.250000 52.794697
47.625000 52.781879
46.224998 52.673561
46.025002 52.594513
47.174999 52.685257
47.724998 52.652523
47.474998 52.579159
46.549999 52.773010
46.000000 52.815533
45.400002 52.846565
45.500000 52.869213
45.549999 52.836258
45.500000 51.426800
45.500000 51.684570
45.625000 51.971661
47.625000 52.230667
46.450001 52.617622
47.099998 52.801079
72.025002 52.885494
80.425003 52.947102
77.949997 52.893112
59.125000 53.002144
24.450001 52.982765
70.300003 52.869659
78.500000 52.787109
78.150002 52.726864
78.550003 52.682892
61.025002 52.749760
46.099998 52.650120
37.799999 52.676361
38.974998 52.596554
42.750000 52.538307
46.549999 52.446316
51.000000 52.626572
52.075001 52.708652
41.700001 52.719082
38.825001 52.677216
41.000000 52.498219
47.275002 52.614979
37.900002 52.601231
32.724998 52.591202
36.025002 52.781796
42.950001 52.772461
47.075001 52.864613
48.474998 52.882381
48.500000 52.994316
45.200001 53.076012
43.250000 52.888237
53.125000 53.048065
63.174999 53.164715
72.074997 53.398289
71.599998 53.370846
61.700001 53.202377
77.324997 53.079426
0.200000 53.187607
30.250000 53.019157
77.099998 52.945698
79.349998 52.743652
56.900002 52.794106
64.349998 52.830925
53.724998 52.363007
42.424999 52.466808
47.224998 52.443611
36.900002 52.575123
34.950001 52.572147
41.224998 52.372055
44.775002 52.621849
47.674999 52.556767
45.825001 52.657707
39.200001 52.731380
38.849998 52.884109
46.650002 52.896614
53.174999 52.757309
51.075001 52.853550
46.224998 52.775356
50.099998 52.866726
53.299999 52.982887
65.574997 52.919228
57.200001 53.070686
45.200001 53.082264
28.600000 53.338112
31.525000 53.376408
34.900002 53.305393
39.075001 53.451481
43.525002 53.409672
40.625000 53.280193
74.050003 53.185696
73.974998 53.067249
74.974998 53.030277
74.800003 52.854855
75.074997 52.726830
65.699997 52.682873
47.299999 52.799225
37.174999 52.834663
34.400002 52.811047
36.924999 52.793816
41.924999 52.682278
45.125000 52.749313
47.625000 52.699272
46.924999 52.613277
48.174999 52.649471
52.775002 52.725372
57.349998 52.929203
55.674999 52.929527
49.900002 52.979244
44.250000 53.065002
61.299999 53.078121
50.625000 53.087696
46.474998 53.094685
23.950001 53.347176
50.200001 53.333534
71.425003 53.175144
72.525002 53.158512
57.549999 53.245319
28.650000 53.160248
0.200000 52.999199
0.150000 53.129044
0.100000 53.075386
0.075000 53.036213
0.150000 52.958149
22.775000 52.950649
45.250000 52.846222
54.375000 52.770008
53.799999 52.912300
51.349998 52.917191
51.724998 52.920761
53.250000 52.923363
56.349998 52.925266
56.250000 52.926651
53.424999 52.779228
51.924999 52.572678
49.625000 52.570362
48.375000 52.717110
46.750000 52.725254
46.549999 52.533276
46.299999 52.591084
46.349998 52.534309
45.125000 52.789753
41.450001 52.976192
50.849998 53.062778
60.375000 53.373371
57.375000 53.451614
38.025002 53.558205
7.500000 53.586514
0.175000 53.557701
0.175000 53.289272
0.250000 53.093365
79.025002 53.098820
70.324997 53.053322
78.500000 52.871677
68.175003 52.442226
63.075001 52.425674
61.650002 52.660988
59.775002 52.733772
56.174999 52.687935
52.750000 52.852398
50.900002 52.774513
48.525002 52.816628
46.799999 52.847363
45.750000 52.572922
46.500000 52.620018
46.974998 52.555431
46.799999 52.508297
45.625000 52.424412
44.549999 52.610592
44.025002 52.696987
43.750000 52.413696
44.174999 52.503807
44.375000 52.074780
48.325001 52.503849
78.025002 52.767521
77.974998 52.959965
38.075001 53.397289
55.849998 53.568027
0.125000 53.692646
0.275000 53.338280
71.250000 53.376530
82.050003 53.107567
78.224998 53.010223
47.900002 52.840221
60.049999 52.963543
20.549999 52.954590
30.674999 52.898575
37.924999 52.857697
41.625000 52.728905
44.950001 52.783337
46.875000 52.724110
47.025002 52.680882
45.799999 52.847252
44.599998 52.968670
43.375000 52.958332
43.200001 52.653908
43.700001 52.629646
43.650002 52.710899
44.400002 52.621761
44.525002 52.655670
44.375000 52.680412
44.525002 52.846905
43.575001 52.968422
42.974998 53.007629
52.650002 53.135208
66.800003 53.228313
57.799999 53.494183
35.924999 53.539791
30.424999 53.276203
29.549999 53.281742
33.000000 53.384739
55.549999 53.064079
72.875000 53.027969
79.500000 53.100571
77.800003 53.005123
49.549999 52.836494
35.174999 52.713425
32.500000 52.574131
37.625000 52.670376
42.400002 52.691147
47.674999 52.706306
49.575001 52.618408
48.099998 52.455303
48.049999 52.534172
45.650002 52.591736
44.299999 52.584267
44.075001 52.578819
43.700001 52.277969
44.000000 52.355267
44.849998 52.510647
47.500000 52.574566
55.400002 52.769657
63.375000 52.714123
66.400002 52.822033
59.200001 51.515373
54.674999 52.194523
84.775002 52.690201
0.225000 53.101448
58.174999 53.203678
75.900002 53.278286
75.099998 53.085342
79.875000 52.994007
73.400002 52.828388
78.275002 52.905422
38.575001 52.961655
58.950001 53.002689
0.300000 52.933685
0.175000 52.932796
0.075000 52.882668
20.375000 53.044006
43.950001 53.062794
54.474998 52.730156
54.674999 52.734772
50.275002 52.639183
45.825001 52.569424
43.674999 52.666946
47.025002 52.441242
55.200001 52.573391
60.599998 52.768803
60.174999 52.812454
55.650002 52.992756
52.650002 52.975914
47.125000 53.013096
45.325001 52.941280
42.875000 52.987820
46.450001 53.120747
20.150000 53.267242
74.599998 53.374161
78.449997 53.353233
74.650002 53.288479
83.900002 53.142265
42.849998 52.837635
0.175000 52.763733
0.125000 52.759281
0.200000 52.706554
0.150000 52.767025
0.150000 52.811165
0.225000 52.694942
0.175000 52.610115
26.000000 52.399765
50.025002 52.592602
59.150002 52.683861
58.849998 52.750469
57.825001 52.799076
60.750000 52.785076
62.974998 52.576939
61.224998 52.523994
57.150002 52.584305
53.875000 52.628326
51.775002 52.808895
50.299999 52.841724
46.349998 52.816204
73.974998 52.698612
59.474998 53.107586
35.700001 53.356598
79.775002 53.439377
80.275002 53.549271
79.099998 53.678947
74.550003 53.575684
78.025002 53.500313
77.800003 53.346355
81.625000 52.986588
81.900002 52.921928
4.450000 52.775780
0.175000 52.718594
70.349998 52.676857
27.350000 52.745354
0.450000 51.261497
0.425000 51.811321
0.425000 52.212601
15.850000 52.357044
47.500000 52.264542
64.675003 52.543392
66.974998 52.647942
61.200001 52.674770
54.400002 52.793312
48.799999 52.681911
45.674999 52.749043
46.299999 52.748562
51.099998 52.847168
42.500000 52.968609
43.375000 52.859325
51.000000 53.026970
81.099998 53.099838
81.150002 53.202499
78.400002 53.277431
59.775002 53.233158
46.325001 53.101887
49.000000 53.105038
21.200001 52.958904
2.000000 52.951199
49.025002 52.945583
36.799999 52.793049
81.224998 52.731197
80.250000 52.537613
80.400002 52.495296
74.625000 52.761276
49.099998 52.559566
57.900002 52.659752
44.250000 52.584427
42.599998 52.529461
44.900002 52.489338
47.424999 52.608501
49.200001 52.596504
49.625000 52.538265
49.250000 52.743164
46.849998 52.496876
40.650002 52.613995
68.349998 52.699474
46.400002 52.811337
46.049999 52.991940
42.799999 53.024796
64.925003 53.048775
64.574997 52.917839
52.900002 53.168629
42.900002 53.104267
37.474998 53.007820
33.974998 52.838474
43.474998 52.615910
34.974998 52.750351
42.674999 52.700031
25.174999 52.613831
76.699997 52.402481
81.150002 52.446144
81.400002 52.478012
45.700001 52.501270
20.025000 52.716160
19.549999 52.774036
31.775000 52.568882
43.625000 52.518116
51.150002 52.530537
53.099998 52.688046
51.275002 52.753521
48.724998 52.801308
46.174999 52.786701
45.474998 52.578125
45.474998 52.673294
50.849998 52.693275
39.900002 52.460464
44.599998 52.834820
48.224998 53.157516
49.099998 53.294075
56.799999 53.393745
65.925003 53.417007
73.400002 53.433990
70.074997 53.050545
61.950001 52.968609
53.099998 52.859325
30.450001 52.928009
26.549999 52.928658
40.275002 52.879650
50.825001 52.744926
56.224998 52.646595
56.474998 52.723270
52.900002 52.383396
48.924999 52.432213
45.849998 52.467842
43.500000 52.691769
44.025002 52.657280
45.075001 52.731060
46.325001 52.685955
47.700001 52.405643
48.724998 52.300014
47.424999 52.321880
46.575001 52.288364
48.650002 52.461811
52.700001 52.637890
57.549999 52.716911
57.950001 52.725109
54.250000 52.731091
52.299999 52.587021
44.099998 52.580826
41.775002 52.774227
40.724998 53.014336
43.000000 53.090622
47.599998 53.195770
49.924999 53.124084
49.099998 53.022282
46.275002 52.947979
65.425003 52.794796
42.299999 52.781952
13.375000 52.624138
6.125000 52.756359
17.924999 52.704418
34.924999 52.666508
46.799999 52.638844
51.825001 52.371254
53.525002 52.373875
56.974998 52.474747
61.125000 52.498890
61.150002 52.664944
56.974998 52.736660
51.500000 52.640564
47.575001 52.570431
45.825001 52.420284
46.250000 52.558094
47.674999 52.609200
50.000000 52.695969
48.775002 53.006702
46.974998 53.085045
46.849998 53.290665
48.900002 53.490215
51.700001 53.437943
51.900002 53.498737
50.474998 53.246243
49.500000 53.111439
46.900002 52.864620
45.325001 52.783432
36.950001 52.773659
37.025002 52.667564
39.049999 52.590137
47.275002 52.682068
60.125000 52.749157
63.599998 52.748642
59.525002 52.698784
53.250000 52.860321
47.849998 52.780296
46.125000 52.820847
47.674999 52.454617
49.924999 52.632637
50.549999 52.663597
49.599998 52.587238
48.000000 52.630463
46.525002 52.513573
45.450001 52.626183
45.150002 52.708370
46.224998 52.916786
47.099998 52.969944
43.799999 53.305618
44.775002 53.501125
41.200001 53.544853
70.300003 53.477818
83.324997 53.428886
75.849998 53.294220
71.375000 52.948540
70.925003 52.943638
63.500000 52.989544
56.299999 52.973560
37.224998 52.615555
32.525002 52.651131
53.849998 52.627617
60.700001 52.808376
79.875000 52.841347
76.800003 52.716965
63.250000 52.725151
50.500000 52.780598
42.650002 52.821072
40.700001 52.751652
40.724998 52.651501
41.250000 52.776329
46.799999 52.620033
59.974998 52.852318
61.349998 52.873413
55.049999 52.987766
35.700001 53.120708
39.549999 53.118774
44.224998 53.216324
47.974998 53.287518
52.674999 53.487919
69.425003 53.436264
74.574997 53.349083
27.600000 53.186497
42.575001 52.968872
0.050000 53.007961
82.574997 52.937531
66.525002 52.737690
36.900002 52.294964
29.400000 51.773922
34.450001 52.036877
42.099998 52.228790
47.200001 52.170937
49.250000 52.376110
49.200001 52.426899
47.650002 52.414482
47.200001 52.454906
50.299999 52.484406
58.924999 52.654377
66.000000 52.728951
65.974998 52.832851
60.299999 53.057121
54.299999 52.973412
40.799999 52.912315
48.200001 52.719280
53.875000 53.073193
51.599998 53.331490
46.349998 51.887199
46.875000 52.218502
49.525002 52.361351
39.549999 52.614044
0.125000 52.650032
75.525002 52.874214
80.849998 52.790432
79.925003 52.778770
48.125000 52.572342
4.625000 52.520638
57.474998 52.631332
74.574997 52.563698
74.500000 52.613285
74.425003 52.550514
74.474998 52.554188
63.750000 52.556862
57.299999 52.608295
52.950001 52.348957
49.775002 52.357601
48.174999 52.512344
52.325001 52.625286
36.025002 52.608765
20.600000 52.794613
21.975000 52.979736
25.900000 53.015884
50.125000 52.992790
72.175003 53.025417
45.150002 53.197666
47.174999 53.174938
57.900002 53.257317
57.525002 53.267956
54.299999 53.325203
34.450001 53.218548
33.025002 52.794350
60.125000 52.781628
19.900000 52.970253
76.925003 52.959492
26.875000 52.506321
0.150000 52.521935
59.750000 52.681763
72.974998 52.748936
72.900002 52.748486
72.775002 52.451279
72.474998 52.729156
72.750000 52.783520
59.750000 52.823200
48.025002 52.753208
41.299999 52.900036
39.700001 52.809280
41.325001 52.594608
42.400002 52.685326
41.424999 52.702053
41.200001 52.813221
77.525002 52.795403
13.000000 52.881348
0.150000 52.894604
5.950000 53.201145
37.750000 53.177483
2.925000 52.962296
9.150000 53.003159
41.875000 52.884544
44.224998 52.797977
73.875000 52.932713
73.650002 52.833126
73.175003 52.760448
75.900002 52.806366
78.550003 52.691437
15.800000 52.706520
0.200000 52.618565
0.175000 52.603851
12.050000 52.741550
36.974998 52.743092
52.000000 52.546303
56.650002 52.501633
53.799999 52.469025
47.950001 52.742107
43.625000 52.743500
41.700001 52.249722
41.299999 52.136738
35.650002 52.450111
59.825001 52.728302
73.449997 52.782902
62.375000 52.872231
60.799999 53.085861
0.250000 52.944904
45.299999 52.842033
74.775002 52.964859
74.875000 52.856594
75.400002 52.876534
76.599998 52.891090
66.900002 52.753273
28.674999 52.702171
21.725000 52.615391
16.125000 52.552059
37.375000 52.406876
53.400002 52.449352
59.700001 52.529827
58.700001 52.588570
52.125000 52.532478
46.200001 52.590504
41.700001 52.632854
42.549999 52.564804
38.500000 52.515133
36.750000 52.330444
37.424999 51.997742
39.400002 52.249706
40.450001 52.433598
37.650002 52.468853
36.674999 52.593548
64.425003 52.635071
60.650002 52.566418
68.050003 52.664749
35.674999 52.934433
39.750000 53.032303
58.750000 52.955296
67.974998 52.998047
67.199997 53.128208
56.150002 53.074768
17.200001 53.580036
49.825001 53.058178
49.049999 52.924702
74.150002 52.975723
76.525002 52.864525
75.099998 52.783360
28.174999 52.674644
8.150000 52.694260
10.625000 52.362225
23.725000 52.367283
37.375000 52.420452
43.250000 52.459259
45.150002 52.586548
0.125000 52.679440
72.900002 52.598801
73.074997 52.787342
73.125000 52.825996
74.275002 52.507847
73.500000 52.869396
76.375000 53.083794
0.150000 53.289749
10.800000 53.341114
51.450001 53.576511
74.875000 53.599880
75.074997 53.567451
36.549999 53.444832
28.200001 53.404808
13.625000 53.425083
23.950001 53.291443
17.725000 53.193905
45.650002 53.221676
74.925003 53.093513
47.825001 52.802052
71.025002 52.589329
70.925003 52.335117
83.675003 52.396976
0.225000 52.392643
0.225000 52.438965
0.250000 52.324333
0.250000 52.240669
0.225000 52.328049
0.275000 52.540260
0.225000 52.645657
0.175000 52.772064
0.200000 52.864323
38.474998 52.882172
66.925003 52.796246
73.650002 53.079884
68.099998 53.138462
57.849998 53.329647
48.700001 53.221786
44.450001 53.291504
43.750000 53.342392
45.450001 53.181610
47.049999 53.064266
45.700001 52.830185
44.099998 52.758301
29.674999 52.804794
30.500000 52.640812
73.900002 52.570610
74.650002 52.321453
73.074997 52.436489
73.150002 52.372002
73.625000 52.374424
73.750000 52.425671
73.750000 52.364109
73.824997 52.022305
74.000000 52.069717
74.300003 52.054836
74.699997 52.093460
74.175003 51.973213
69.550003 51.984406
55.500000 52.091537
44.099998 52.367645
36.299999 52.470196
32.424999 52.545044
45.599998 52.500717
47.950001 52.468357
44.099998 52.692142
50.549999 52.657551
0.200000 52.780743
10.850000 53.019093
36.224998 52.698254
35.224998 52.612537
42.799999 52.549973
75.449997 52.504307
51.700001 52.817341
37.125000 52.649963
21.025000 52.577286
20.850000 52.573727
39.375000 52.571129
51.099998 52.272358
53.099998 52.450134
50.250000 52.629356
46.625000 52.611732
43.349998 52.450428
41.500000 52.332699
42.075001 52.296257
43.125000 52.170696
42.849998 52.326454
42.875000 52.242218
42.000000 52.378658
43.000000 52.379280
42.325001 52.280773
43.424999 52.406799
38.224998 52.597733
41.075001 52.935005
44.700001 52.933765
39.950001 53.180248
34.500000 53.310669
39.900002 53.356373
48.424999 53.290771
53.275002 53.094463
51.325001 53.000664
18.400000 52.585846
78.625000 52.777889
50.150002 52.522217
41.099998 52.484051
24.900000 52.456203
41.775002 52.534828
55.174999 52.641701
58.799999 52.620731
53.724998 52.555954
47.250000 52.360241
42.424999 52.563751
40.525002 52.563847
40.549999 52.563915
41.849998 52.514484
42.950001 52.527889
44.400002 52.389236
45.375000 51.991169
46.875000 51.997509
51.525002 52.348495
56.049999 52.604656
57.250000 52.742138
54.375000 52.743515
51.400002 52.942440
48.349998 52.939190
46.549999 52.936813
40.700001 52.440289
47.400002 52.671650
50.900002 52.741554
45.474998 52.743092
44.900002 52.744217
50.325001 52.646080
28.875000 52.673412
66.099998 52.396484
74.099998 52.194366
73.400002 52.195297
73.375000 52.294933
73.449997 52.169731
73.425003 52.127834
65.625000 52.196213
49.549999 52.345081
41.974998 52.404251
40.474998 52.150558
43.400002 52.212803
45.099998 52.307709
45.950001 52.376976
46.500000 52.526493
45.150002 52.536652
43.799999 52.494591
27.600000 52.315453
10.275000 52.531063
20.200001 52.688427
7.250000 52.704319
20.150000 52.864357
56.200001 52.981155
1.700000 52.967442
64.125000 52.957439
41.000000 52.900654
47.674999 52.661297
81.824997 52.585556
16.250000 51.342785
0.125000 51.573772
12.950000 51.890797
36.400002 52.023216
55.950001 51.921944
63.950001 52.194378
63.250000 52.244789
56.799999 52.331051
49.174999 52.394009
44.224998 52.588402
42.049999 52.581837
42.150002 52.676003
42.049999 52.645771
76.150002 52.673187
0.100000 52.594242
71.000000 52.586098
77.599998 52.778072
76.849998 53.017139
74.525002 52.795799
75.275002 52.832157
26.950001 52.759743
64.625000 52.805851
69.300003 52.691063
70.449997 52.607285
70.925003 52.496666
28.549999 52.514881
0.175000 52.577656
0.200000 52.376076
0.225000 52.278439
0.225000 52.207176
0.250000 52.254120
0.325000 52.337868
0.250000 52.398983
0.375000 52.394108
18.325001 52.440037
50.474998 52.275639
67.050003 52.205132
67.525002 52.203152
60.450001 52.498581
51.525002 52.615242
44.049999 52.255070
41.700001 52.289078
36.325001 52.313900
39.075001 52.480453
45.049999 52.602009
50.500000 52.740204
52.299999 52.890545
51.500000 52.802357
48.375000 52.737991
45.375000 52.789970
77.099998 52.926868
78.500000 52.878342
78.925003 52.645012
79.425003 52.474720
78.824997 52.350430
60.000000 52.408157
47.424999 52.252373
49.224998 52.287106
62.700001 52.312462
74.875000 52.479404
74.900002 52.601242
75.099998 52.591213
75.125000 52.583885
68.550003 52.578545
48.424999 52.673599
0.150000 52.792461
0.200000 52.879204
32.275002 52.991997
44.500000 52.925873
45.900002 52.877617
49.099998 52.891876
50.750000 52.951763
43.825001 52.550163
48.424999 51.217995
53.224998 51.532169
69.974998 51.860432
73.150002 52.149490
73.875000 52.212021
76.724998 52.257656
42.375000 52.340446
0.300000 52.549309
0.300000 52.503826
0.325000 52.718025
14.925000 52.775402
34.924999 52.817276
48.099998 52.699402
52.724998 52.662849
50.825001 52.537209
47.900002 52.544479
45.250000 52.648735
43.349998 52.675350
44.099998 52.744255
36.224998 52.349232
50.025002 52.456760
53.025002 52.436279
46.875000 52.619251
44.474998 52.703312
27.825001 52.715179
32.099998 52.624886
49.299999 52.460030
55.575001 52.537624
0.150000 52.544781
71.849998 52.451046
75.675003 52.481586
76.000000 52.305958
74.824997 52.227264
74.425003 52.169827
74.125000 52.127911
74.300003 52.146786
73.775002 52.309006
72.849998 52.328438
56.674999 52.392109
46.299999 52.339615
41.325001 52.400261
42.849998 52.345566
44.700001 52.256165
46.099998 52.388832
51.575001 52.386703
41.075001 52.484108
52.075001 52.505718
19.775000 52.521492
0.200000 52.631966
30.700001 52.811543
30.600000 52.893135
73.125000 52.754765
73.125000 52.703255
73.150002 52.715141
72.974998 52.674339
64.400002 52.792999
40.099998 52.830120
63.025002 52.708778
18.924999 52.620213
0.200000 52.654533
0.150000 52.283749
0.200000 52.310005
0.450000 52.378654
0.175000 52.527710
3.925000 52.488064
37.625000 52.558086
58.299999 52.510231
62.750000 52.475307
58.275002 52.400333
50.974998 52.543541
46.200001 52.648052
43.900002 52.575897
43.799999 52.622185
18.575001 51.122120
74.525002 51.610641
72.300003 51.967178
77.675003 52.227406
77.949997 52.664722
64.925003 52.934418
53.349998 53.081764
51.349998 52.842960
51.400002 52.916061
50.075001 52.870457
43.325001 52.738213
30.600000 52.740654
35.650002 52.544525
32.174999 52.549812
30.575001 52.603149
32.025002 52.642078
37.250000 52.274662
42.775002 52.204422
47.075001 52.400547
48.674999 52.444729
48.849998 52.427502
47.875000 52.464405
47.099998 52.540821
46.200001 52.448151
45.775002 52.578434
43.174999 52.624043
59.650002 52.756287
72.875000 52.704369
69.400002 52.715950
66.574997 52.773888
54.049999 53.014084
45.400002 53.090439
42.575001 52.552410
40.700001 52.704010
40.549999 52.616734
42.775002 52.701473
42.575001 52.763313
40.349998 52.857937
40.000000 52.926991
42.900002 52.631039
43.775002 52.612961
46.900002 52.698719
49.700001 52.612877
49.974998 52.649178
48.750000 52.576710
47.375000 52.523827
46.650002 52.485226
46.650002 52.654976
46.900002 52.432510
48.825001 52.517540
54.400002 52.678558
59.450001 52.895027
60.724998 53.053020
57.200001 53.168335
52.724998 53.153530
52.200001 52.994293
46.275002 52.927551
51.299999 53.027283
53.099998 53.199024
57.900002 53.373852
34.275002 53.451965
42.525002 53.360542
49.299999 53.293816
50.125000 53.146160
60.000000 52.988911
35.200001 53.022583
45.900002 53.096642
68.875000 53.200165
