49.674999 55.659943
49.799999 55.664726
49.825001 55.519783
50.700001 55.463474
51.000000 55.521336
50.325001 55.464607
49.775002 55.472687
49.349998 55.528057
49.075001 55.073681
49.200001 55.236847
49.075001 55.158020
49.150002 55.149967
49.125000 55.243046
49.250000 55.261497
49.200001 55.472889
49.349998 55.676647
49.400002 55.627434
49.750000 55.690483
50.799999 55.489098
51.799999 55.589520
52.275002 55.613331
52.299999 55.630707
51.250000 55.593910
50.799999 55.567055
50.650002 55.646412
50.275002 55.654854
50.049999 55.611534
49.625000 55.233562
49.950001 55.304058
50.099998 55.355515
49.700001 55.393059
49.650002 55.568905
49.375000 55.746723
49.200001 55.678585
49.125000 55.331978
49.075001 55.573807
48.924999 55.601864
49.049999 55.523380
49.275002 55.466099
49.099998 55.424294
49.299999 55.641178
48.750000 55.601555
49.174999 55.572639
49.150002 55.304131
50.275002 55.306084
51.549999 55.554901
51.674999 55.637547
51.650002 55.648384
51.325001 55.804729
50.724998 55.869358
50.224998 55.669132
49.875000 55.720909
49.799999 55.857662
49.575001 55.858513
49.349998 55.512775
49.450001 55.458359
49.424999 55.468121
49.174999 55.475250
49.349998 55.579411
49.025002 55.408039
48.924999 55.381924
48.849998 55.362858
48.700001 55.497379
48.875000 55.496605
48.674999 55.446552
49.025002 55.657429
48.900002 55.415493
48.700001 55.436840
48.549999 55.551376
48.549999 55.585495
49.000000 55.659870
49.650002 55.565720
50.424999 55.497002
50.674999 55.446850
50.349998 55.459724
49.900002 55.271202
49.174999 55.381012
49.200001 55.362190
48.974998 55.447418
49.299999 55.559093
49.424999 55.541649
49.174999 55.578388
49.150002 55.506248
48.900002 55.305157
48.799999 55.356312
48.599998 55.492607
48.700001 55.443634
48.400002 55.556339
49.075001 55.490154
48.700001 55.540813
48.650002 55.429348
48.474998 55.446949
48.750000 55.509270
48.575001 55.554764
48.424999 55.489002
48.825001 54.946224
49.099998 55.193302
49.525002 55.522072
50.174999 55.316711
50.125000 55.562664
50.125000 55.544250
49.775002 55.530811
49.750000 55.619961
49.625000 55.635551
49.275002 55.646923
49.099998 55.556267
49.200001 55.490097
49.099998 55.392334
49.000000 55.419930
49.049999 55.440075
49.200001 55.405300
49.099998 55.379921
49.049999 55.509830
49.075001 55.604645
48.750000 55.426456
48.750000 55.395363
49.150002 55.620064
49.075001 55.388226
49.000000 55.416935
48.900002 55.536846
48.775002 55.574890
48.900002 55.553177
48.799999 55.487846
49.049999 55.242252
48.900002 55.211441
49.575001 55.287918
49.974998 55.442680
50.400002 55.506157
50.025002 55.453533
49.974998 55.514076
49.674999 55.409832
49.375000 55.383228
49.299999 55.413292
49.349998 55.583668
49.525002 55.559578
49.424999 55.542004
49.174999 55.578651
49.500000 55.605396
49.424999 55.624920
49.299999 55.342293
49.150002 55.333939
49.224998 55.278355
49.299999 55.336750
49.099998 55.379368
49.025002 55.262032
48.900002 55.275360
49.049999 54.790295
49.099998 55.079498
48.775002 55.191612
48.974998 55.223969
48.750000 55.445492
48.900002 55.458733
48.875000 55.468395
49.349998 55.574409
49.849998 55.602299
50.174999 55.474224
50.224998 55.430225
50.549999 55.398109
49.974998 55.374676
49.599998 55.407051
49.625000 55.430676
49.174999 55.497402
49.099998 55.348183
49.424999 55.338234
49.375000 55.479408
49.400002 55.483490
49.549999 55.436985
49.424999 55.650440
49.700001 55.806232
49.375000 55.722019
49.250000 55.759510
49.125000 55.638443
49.400002 55.649033
49.325001 55.557808
49.400002 55.491226
49.349998 55.393154
49.375000 55.420536
49.150002 55.440517
49.275002 55.306664
49.299999 55.307934
49.549999 55.308853
50.325001 55.457970
50.849998 55.467838
51.075001 55.524521
50.549999 55.664852
50.599998 55.816746
49.924999 55.729694
49.700001 55.567196
49.775002 55.498077
49.625000 55.546593
49.900002 55.483040
50.250000 55.436661
49.849998 55.402809
49.575001 55.427582
49.450001 55.247746
49.250000 55.264935
49.400002 55.277473
49.349998 55.187668
49.400002 55.369522
49.525002 55.452766
49.549999 55.464043
49.700001 55.620712
49.450001 55.735050
49.500000 55.571106
49.349998 55.649364
49.474998 55.805447
50.025002 55.770927
50.724998 55.646767
51.224998 55.655117
51.174999 55.512764
51.049999 55.507828
50.700001 55.504230
50.575001 55.551079
50.775002 55.486317
50.125000 54.350513
50.500000 54.758522
50.049999 54.957352
49.974998 55.052990
49.799999 55.320705
49.750000 55.169743
49.750000 55.257481
49.750000 55.370991
49.599998 55.354877
49.450001 55.442078
49.500000 55.307804
49.500000 55.308765
49.250000 55.111549
49.424999 55.215004
49.275002 55.290516
49.400002 55.197186
49.174999 55.326981
49.400002 55.223804
49.799999 55.395893
50.424999 55.472015
51.299999 55.527573
51.650002 55.518642
51.799999 55.512115
51.500000 55.507359
51.099998 55.602848
51.099998 55.524101
50.950001 55.565586
50.549999 55.496906
50.500000 55.248863
50.500000 55.216263
50.474998 55.291435
50.500000 55.346294
50.250000 55.435814
49.825001 55.402191
49.674999 55.377647
49.950001 55.508175
49.549999 55.553963
49.575001 55.339985
49.674999 55.530163
49.700001 55.718445
49.825001 55.657948
49.674999 55.712749
49.525002 55.851704
49.400002 55.804684
49.674999 55.473492
49.674999 55.429688
49.775002 55.694588
49.700001 55.640537
50.299999 55.601086
51.099998 55.522816
51.799999 55.564648
51.974998 55.595173
51.700001 55.765892
51.150002 55.791538
50.724998 55.711292
50.474998 55.801163
50.349998 55.520401
50.375000 55.513401
50.424999 55.607262
50.150002 55.774715
50.075001 55.600052
50.075001 55.522060
49.674999 55.465137
49.375000 55.423592
49.275002 55.442745
49.549999 55.456734
49.474998 55.417458
49.700001 55.388794
49.450001 55.516312
49.450001 55.411461
49.450001 55.483372
49.424999 55.535858
49.750000 55.673126
49.750000 55.822788
49.825001 55.734100
49.400002 55.768333
49.500000 55.545918
50.049999 55.581505
50.950001 55.508522
51.599998 55.554214
51.875000 55.538082
52.025002 55.724232
51.349998 55.761124
50.974998 55.738571
50.625000 55.623158
50.450001 55.341007
50.900002 55.481434
50.424999 55.484962
50.400002 55.487541
50.200001 55.637859
49.650002 55.599133
49.500000 55.570866
49.650002 55.451279
49.775002 55.512432
49.575001 55.606544
49.599998 55.427845
49.599998 55.396374
49.275002 55.373405
49.549999 55.406124
49.525002 55.430000
49.450001 55.397942
49.500000 55.176640
49.174999 55.213032
49.174999 55.882832
49.349998 55.777924
49.224998 55.701355
49.724998 55.793911
50.825001 55.910938
51.325001 55.798435
52.000000 55.815289
51.724998 55.778107
51.525002 55.800446
51.125000 55.668316
50.575001 55.472927
50.200001 55.429279
50.200001 55.446903
50.275002 55.459763
50.299999 55.221756
50.700001 55.245960
50.325001 55.164669
49.950001 55.352730
50.000000 55.391037
49.700001 55.369511
49.450001 55.551716
49.750000 55.338348
49.799999 55.380535
49.750000 55.510284
49.599998 55.456543
49.549999 55.516277
49.349998 55.460915
49.299999 55.519470
49.299999 55.413769
49.400002 55.435577
49.650002 55.253578
49.875000 55.269192
50.000000 55.379543
50.750000 55.509556
51.775002 55.752888
52.275002 55.782040
51.974998 55.753845
51.450001 55.683781
50.849998 55.632648
50.525002 55.595325
50.174999 55.667046
50.250000 55.669914
50.424999 55.770966
50.500000 55.646797
50.575001 55.556175
50.424999 55.440556
50.424999 55.455135
50.200001 55.267857
49.875000 55.378571
49.775002 55.360409
49.950001 55.248196
50.049999 55.413696
49.750000 55.485004
49.724998 55.289654
49.799999 55.493435
49.674999 55.642159
49.575001 55.602264
49.549999 55.672108
49.674999 55.822044
49.875000 55.832516
50.924999 55.691723
51.799999 55.687923
52.349998 55.487232
52.400002 55.687111
51.750000 55.734035
51.174999 55.718803
50.424999 55.608730
50.400002 55.429436
50.424999 55.545971
50.799999 55.334152
50.674999 55.575386
50.674999 56.097809
50.575001 55.934826
50.299999 55.815868
49.799999 55.828007
49.875000 55.787388
49.700001 55.757744
49.474998 55.637150
49.750000 55.351215
49.525002 55.290974
49.825001 55.345959
49.700001 55.386089
49.650002 55.514336
49.549999 55.459499
49.375000 55.419479
49.799999 55.340790
50.150002 55.431793
51.299999 55.498219
52.599998 55.695133
53.200001 55.640934
52.674999 55.601372
52.224998 55.770424
51.325001 55.745361
50.724998 55.727074
50.825001 55.416847
51.049999 54.992516
50.775002 55.029171
50.875000 55.154888
50.849998 55.246639
50.450001 55.363079
50.250000 55.448067
49.674999 55.312172
49.549999 55.460388
49.900002 55.469608
49.875000 55.426853
49.974998 55.593567
49.724998 55.566803
49.724998 55.547276
49.900002 55.631977
49.549999 55.792751
49.599998 55.613224
49.200001 55.531666
49.299999 55.472149
49.474998 55.379234
50.650002 55.410378
52.450001 55.235184
53.875000 55.255764
53.549999 55.171822
53.049999 55.308475
51.750000 55.457695
51.200001 55.566597
50.924999 55.497643
51.049999 55.645229
50.700001 55.604511
51.025002 55.574795
50.950001 55.652061
50.799999 55.708458
50.525002 55.700138
50.224998 55.595100
49.825001 55.518448
49.724998 55.462494
49.674999 55.471146
49.575001 55.477455
49.575001 55.086224
49.599998 55.147045
49.599998 55.092480
49.375000 55.399006
49.325001 55.424809
49.299999 55.394154
49.250000 55.421261
49.549999 55.638966
49.575001 55.599941
50.575001 55.373539
52.200001 55.554657
53.400002 55.637367
53.575001 55.648247
52.799999 55.656197
51.750000 55.612514
50.700001 55.580627
50.349998 55.359447
50.500000 55.445412
50.325001 55.409195
50.450001 55.531197
50.500000 55.620243
50.099998 55.586277
50.025002 55.610966
50.000000 55.727940
49.700001 55.813316
49.450001 55.628227
49.250000 55.691059
49.349998 55.835880
49.599998 55.743652
49.450001 55.626865
49.474998 55.541630
49.474998 55.429939
49.250000 55.348423
49.250000 55.387890
48.974998 55.466171
49.049999 55.523308
50.349998 55.466042
52.099998 55.572693
53.025002 55.650528
53.200001 55.707340
52.200001 55.847759
51.000000 55.752331
50.500000 55.682674
50.200001 55.730801
49.849998 55.716438
50.174999 55.705959
50.474998 55.599354
50.250000 55.521553
49.900002 55.316330
49.575001 55.512897
49.349998 55.507931
49.250000 55.454826
49.474998 55.416065
49.174999 54.101318
49.150002 54.576649
49.150002 54.725658
49.349998 54.883884
49.349998 54.999371
49.099998 55.133137
48.924999 55.230762
49.075001 55.351490
48.950001 55.588043
48.900002 55.612251
49.575001 55.530956
51.700001 55.372673
52.974998 55.405594
53.474998 55.627529
53.150002 55.690548
52.474998 55.687069
51.275002 55.684525
50.724998 55.682671
50.424999 55.730793
50.275002 55.716438
50.025002 55.458565
50.150002 55.666191
50.150002 55.619812
49.825001 55.585960
49.700001 55.660213
49.424999 55.813366
48.974998 55.776703
49.125000 55.453072
49.200001 55.513741
48.974998 55.409588
49.025002 55.432526
49.049999 55.449272
48.950001 55.510971
48.875000 55.457047
48.750000 55.417686
48.724998 55.586876
48.799999 55.462959
48.625000 55.026165
48.724998 55.301125
50.275002 55.551289
51.974998 55.535942
53.099998 55.623707
53.299999 55.638287
52.575001 55.549961
51.500000 55.584461
50.775002 55.510681
49.900002 55.456833
49.775002 55.467010
49.775002 55.474442
49.700001 55.529339
49.900002 55.470451
49.575001 55.328506
49.450001 55.274395
49.250000 55.432816
49.075001 55.498962
48.825001 55.646191
48.875000 55.605209
48.724998 55.575302
48.549999 55.652435
48.599998 55.659252
48.549999 55.713699
48.775002 55.605003
49.200001 55.624630
48.575001 55.540001
48.450001 55.527706
48.150002 55.518738
48.575001 55.462708
49.375000 55.520775
51.000000 55.266285
52.150002 55.575333
52.049999 55.652451
51.474998 55.659264
50.799999 55.812668
49.875000 55.726719
49.325001 55.663982
49.450001 55.519241
49.674999 55.562038
49.625000 55.642750
49.750000 55.652176
49.575001 55.560101
49.150002 55.542381
48.700001 55.529442
48.750000 55.520004
48.625000 55.562595
48.700001 55.296806
48.775002 55.201778
48.650002 55.577736
48.724998 55.555248
48.525002 55.538841
48.650002 55.724781
48.525002 55.662571
48.599998 55.567688
48.250000 55.646873
48.674999 55.803627
48.825001 55.769596
49.650002 55.645794
51.099998 55.555443
52.099998 55.538982
52.299999 55.724880
51.275002 55.761600
50.500000 55.541012
50.250000 55.478970
49.924999 55.433689
49.650002 55.549080
49.549999 55.583813
49.549999 55.559685
49.700001 55.739990
49.375000 55.871586
49.224998 55.769718
49.200001 55.794327
48.799999 55.911243
48.750000 55.897617
48.349998 55.739231
48.599998 55.623638
48.625000 55.440315
48.674999 55.652874
48.599998 55.412170
48.599998 55.483891
48.650002 55.437283
48.625000 55.551701
48.474998 55.635208
48.150002 55.696148
48.125000 55.691154
48.450001 55.638027
49.450001 55.995087
50.525002 55.859859
51.625000 55.860115
51.799999 55.810818
50.849998 55.824326
50.150002 55.685745
49.849998 55.584602
49.200001 55.510780
48.900002 55.506382
48.974998 55.602131
48.849998 55.622532
48.724998 55.538467
49.075001 55.773987
48.974998 55.797440
48.424999 55.715599
48.400002 55.705353
48.224998 55.846306
48.625000 55.949181
48.325001 55.826347
48.450001 55.835655
48.400002 55.792976
48.299999 55.761818
48.674999 55.640125
48.400002 55.254429
48.349998 55.071892
48.549999 55.186066
48.174999 55.269394
48.500000 55.379688
48.575001 55.361225
49.250000 55.347752
50.049999 55.486355
50.525002 55.488556
50.599998 55.539646
50.075001 55.725368
49.599998 55.662994
49.275002 55.617477
49.049999 55.485294
49.075001 55.537262
49.125000 55.179359
49.500000 55.215015
49.450001 55.043125
49.200001 55.066109
48.974998 55.181839
48.400002 55.266312
48.500000 55.377434
48.674999 55.409061
48.700001 55.481621
48.700001 55.534580
48.724998 55.622711
48.825001 55.588078
49.000000 55.711235
48.650002 55.652687
48.775002 55.609955
48.724998 55.677727
48.700001 55.677708
48.674999 55.727173
49.474998 55.416920
50.424999 55.388405
51.125000 55.318108
51.275002 55.563683
51.025002 55.544994
50.349998 55.382915
50.000000 55.363583
49.700001 55.349472
49.400002 55.487614
49.325001 55.538960
49.625000 55.526947
49.750000 55.716099
49.700001 55.656235
49.375000 55.612541
49.400002 55.679615
49.275002 55.679085
49.075001 55.530258
49.375000 55.471123
49.224998 55.427959
49.049999 55.396458
49.075001 55.422943
49.099998 55.442276
49.025002 55.505867
49.000000 55.453320
49.000000 55.711838
49.099998 55.851040
48.974998 55.804195
49.275002 55.720528
50.099998 55.857384
51.325001 56.006748
52.125000 55.868362
52.299999 55.866322
51.724998 55.716393
51.075001 55.755409
50.474998 55.635448
50.450001 55.547890
50.224998 55.483986
50.075001 55.486824
50.150002 55.488899
49.950001 55.539894
49.900002 55.478153
49.849998 55.334133
49.424999 55.476421
49.549999 55.481304
49.474998 55.286957
49.700001 55.540943
49.650002 55.528400
49.400002 55.519245
49.400002 55.413601
49.500000 55.484936
49.450001 55.536999
49.224998 55.476044
49.200001 55.530510
49.099998 55.471306
49.174999 55.477570
49.150002 55.531624
49.150002 55.571075
49.700001 55.599869
51.275002 55.620884
52.474998 55.685699
52.575001 55.733006
52.424999 55.718052
51.650002 55.855579
50.950001 55.758034
50.424999 55.587883
50.224998 55.661613
50.349998 55.665947
50.400002 55.669109
50.375000 55.572460
50.525002 55.600880
50.075001 55.473183
50.125000 55.478947
49.549999 55.483147
49.349998 55.535690
49.525002 55.574047
49.500000 55.503078
49.724998 55.599724
49.849998 55.670254
49.799999 55.573299
49.575001 55.749931
49.349998 55.483009
49.349998 55.486115
49.349998 55.587341
49.275002 55.611736
49.549999 55.629539
50.750000 55.444626
52.174999 55.507580
52.825001 55.504047
52.875000 55.699390
51.849998 55.742992
51.275002 55.824303
50.450001 55.388851
50.200001 55.367912
50.174999 55.501072
50.224998 55.598259
49.974998 55.619713
50.049999 55.585888
49.974998 55.561199
49.625000 55.543179
49.299999 55.628983
49.299999 55.642136
49.450001 55.651730
49.525002 55.559776
49.924999 55.492668
49.849998 55.443680
49.700001 55.457417
49.099998 55.467434
48.849998 55.524231
48.799999 55.466721
49.049999 54.039330
48.974998 54.531414
48.875000 54.841076
49.525002 54.819687
50.849998 55.150429
51.974998 55.540260
52.924999 55.725815
52.775002 55.762283
52.150002 55.739422
51.200001 55.821693
50.974998 55.683823
50.750000 55.682156
50.000000 55.581982
49.974998 55.706787
49.974998 55.847351
50.025002 55.801510
50.049999 55.768055
49.500000 55.793110
49.174999 56.157749
49.174999 55.780655
49.099998 55.703350
48.974998 55.844849
48.950001 55.898640
48.900002 55.789455
48.950001 55.808735
48.825001 55.773323
48.724998 55.796955
48.875000 55.764725
48.599998 55.642246
48.275002 55.552853
48.400002 55.537086
48.724998 55.525589
49.400002 55.566669
50.724998 55.596649
51.599998 55.816452
51.500000 55.976868
51.099998 55.945511
50.275002 55.823669
49.549999 55.932663
49.424999 55.814293
49.299999 55.727898
49.349998 55.763802
49.450001 55.740528
49.250000 55.773022
49.224998 55.648300
48.875000 55.557270
48.775002 55.490837
48.650002 55.491825
48.525002 55.492554
48.625000 55.542557
48.799999 55.480095
48.599998 55.533466
48.400002 55.720860
48.625000 55.709190
48.700001 55.651188
48.474998 55.757298
48.349998 55.686302
48.525002 55.634491
48.775002 55.695629
49.825001 55.839218
50.349998 55.845051
50.575001 55.700871
50.400002 55.298763
50.125000 55.302166
49.900002 55.502567
49.400002 55.549866
49.099998 55.683353
48.825001 55.582851
49.125000 55.509506
48.799999 55.604412
49.049999 55.673679
48.875000 55.674751
48.775002 55.823978
48.900002 55.982361
48.674999 55.850567
48.599998 55.853333
48.549999 55.954311
48.724998 55.929054
48.924999 55.762177
48.950001 55.541431
48.724998 55.479275
48.700001 55.483387
48.700001 55.486389
48.650002 55.340145
48.650002 55.332367
48.724998 55.227734
49.075001 55.398758
49.849998 55.474106
50.299999 55.529099
50.700001 55.668186
50.825001 55.819183
50.099998 55.731468
49.674999 55.766407
49.825001 55.890873
49.575001 55.882751
49.325001 55.728386
49.275002 55.615723
49.250000 55.533493
49.049999 55.522961
49.099998 55.317360
48.950001 55.414696
48.674999 55.485733
48.549999 55.735500
48.799999 55.769356
49.125000 55.695099
48.900002 55.591431
48.900002 56.109509
48.849998 56.141285
48.625000 55.966549
49.075001 55.937984
49.025002 55.867653
48.849998 55.865803
48.724998 55.814976
48.775002 55.777878
48.900002 55.651840
49.049999 55.213501
49.625000 55.289421
50.674999 55.394299
50.625000 55.371891
51.000000 55.355541
50.474998 55.541519
49.900002 55.627773
49.750000 55.641254
49.299999 55.750046
49.375000 55.681011
49.299999 55.630623
49.549999 55.692806
49.400002 55.589760
49.349998 55.662983
49.174999 55.567989
49.250000 55.498661
49.099998 55.250141
49.075001 55.464596
48.900002 55.472683
48.825001 55.429096
49.224998 55.496246
48.950001 55.446297
49.200001 55.558277
49.200001 55.541054
49.000000 55.577957
48.849998 55.753330
48.924999 55.683407
48.974998 55.632378
49.049999 55.694088
49.000000 55.838089
49.599998 55.794746
50.125000 55.664158
50.325001 55.469894
50.525002 55.427063
50.650002 55.742153
49.849998 55.675251
49.750000 55.675903
49.474998 55.577415
49.650002 55.505539
50.049999 55.601517
50.049999 55.622086
50.299999 55.587620
50.299999 55.710899
49.849998 55.850357
49.474998 55.754223
49.049999 55.783020
49.125000 55.754555
49.325001 55.733776
49.575001 55.421738
49.849998 55.391918
49.325001 55.370155
49.349998 55.403748
49.250000 55.477745
49.224998 55.531750
49.200001 55.472214
49.349998 55.577194
49.275002 55.653812
49.375000 55.709732
49.424999 55.701073
50.299999 55.793701
51.275002 55.960266
51.900002 55.834438
52.000000 55.841564
51.674999 55.797283
51.424999 55.666008
51.349998 55.669151
51.250000 55.671452
51.025002 55.524689
50.924999 55.516537
50.825001 55.659023
50.650002 55.664059
50.674999 55.667728
50.325001 55.571453
50.174999 55.649624
50.075001 55.607719
49.950001 55.626606
49.950001 55.788834
50.025002 55.709324
50.000000 55.651287
49.775002 55.707893
49.825001 55.749207
49.825001 55.729877
49.549999 55.616810
49.575001 55.633251
49.474998 55.546284
49.650002 55.730213
49.599998 55.716015
49.799999 55.705654
50.000000 55.599133
50.674999 55.521385
51.825001 55.662560
52.674999 55.716114
52.700001 55.804684
52.700001 55.918804
52.000000 55.804180
51.724998 55.720516
51.174999 55.560501
50.875000 55.592152
50.575001 55.615253
50.500000 55.533150
50.625000 55.473236
50.750000 55.380024
50.250000 54.124493
50.099998 54.494610
50.075001 54.814217
50.000000 54.948521
49.849998 55.046539
49.875000 55.266521
49.900002 55.328110
49.625000 55.422543
49.549999 55.639900
49.599998 55.600616
49.599998 55.522476
49.724998 55.613876
49.775002 55.779541
49.575001 55.752018
49.424999 55.632973
49.525002 55.645042
49.500000 55.505417
50.125000 55.502472
50.974998 55.599277
52.474998 55.719406
52.900002 55.708130
52.474998 55.699898
51.974998 55.891804
51.125000 55.833946
50.625000 55.791729
50.450001 55.909351
50.450001 55.698315
50.500000 55.643257
50.575001 55.702034
50.650002 55.843884
50.424999 55.798977
50.275002 55.766197
49.900002 55.643318
49.700001 55.553638
49.924999 55.735584
49.599998 55.670456
49.849998 55.573444
49.700001 55.502640
49.650002 55.450962
49.575001 55.561687
49.450001 55.494061
49.500000 55.543659
49.250000 55.530376
49.250000 55.718601
49.099998 55.658062
49.450001 55.712833
50.299999 55.703335
51.200001 55.795357
51.500000 55.763557
51.599998 55.740349
50.700001 55.624454
50.049999 55.589352
49.250000 55.563732
49.250000 55.594509
49.375000 55.616974
49.700001 55.534405
49.950001 55.622581
50.000000 55.538506
49.674999 55.328697
49.224998 55.373489
49.125000 55.406185
48.799999 55.430046
48.900002 55.546421
49.099998 55.581871
49.075001 55.657227
49.075001 55.563786
48.799999 55.594547
48.825001 55.468563
48.950001 55.673489
48.799999 55.625137
48.924999 55.540367
49.200001 55.478497
49.650002 55.334385
50.424999 55.476597
50.799999 55.382481
50.875000 55.462219
50.700001 55.619381
49.900002 55.585648
49.849998 55.561020
49.650002 55.642014
49.474998 55.651642
49.375000 55.708153
49.424999 55.699913
49.750000 55.594940
49.650002 55.518330
49.599998 55.511890
49.250000 55.507198
49.325001 55.553249
49.450001 55.586861
49.049999 55.413471
49.000000 55.435364
49.150002 55.451347
48.974998 55.512486
49.049999 55.705547
49.250000 55.846447
49.200001 55.751369
49.099998 55.780933
49.099998 55.753033
49.275002 55.732670
50.025002 55.618851
50.700001 55.634735
50.849998 55.547375
50.950001 55.533092
50.575001 55.572147
50.224998 55.600651
50.200001 55.522499
49.700001 55.366501
49.525002 55.500038
49.625000 55.548023
49.599998 55.533562
49.575001 55.720924
49.224998 55.659760
49.325001 55.615116
49.224998 55.681492
49.250000 55.680458
49.099998 55.729179
49.224998 55.616302
49.349998 55.533920
48.974998 55.424316
49.200001 55.047443
49.075001 55.267178
49.299999 55.279110
49.150002 55.089909
49.000000 55.298168
49.025002 55.499649
49.299999 55.547737
49.700001 55.483879
50.275002 55.684666
50.924999 55.633297
51.525002 55.595798
50.950001 55.667393
50.325001 55.670166
49.849998 55.672188
49.724998 55.574707
49.849998 55.602516
49.700001 55.523861
49.924999 55.515930
49.750000 55.658581
49.625000 55.564777
49.799999 55.595268
49.349998 55.518570
49.250000 55.611027
49.400002 55.678509
49.700001 55.678280
49.650002 55.628628
49.724998 55.592396
49.224998 55.565948
49.099998 55.645607
49.150002 55.654266
49.049999 55.660587
49.150002 55.665195
49.049999 55.668560
48.825001 55.572063
48.799999 55.551109
49.349998 55.337902
49.549999 54.934895
50.099998 55.036598
50.799999 55.209782
51.299999 55.484615
51.575001 55.586250
50.875000 55.314068
50.424999 55.560726
50.125000 55.740753
49.775002 55.674229
49.900002 55.724636
49.700001 55.711941
49.900002 55.752155
49.924999 55.732029
50.075001 55.717339
49.700001 55.558178
49.799999 55.491497
49.575001 55.591267
49.575001 55.614609
49.275002 55.582161
49.599998 55.509003
49.650002 55.604042
49.299999 55.623928
49.474998 55.638447
49.224998 55.797482
49.250000 55.715630
49.375000 55.655891
49.450001 55.711246
49.275002 55.702171
49.125000 55.695545
49.375000 55.591755
49.674999 55.614960
51.000000 55.384502
51.799999 55.612141
51.875000 55.728798
51.375000 55.714981
51.049999 55.704899
50.375000 55.598576
49.950001 55.669422
50.099998 55.671646
50.049999 55.673267
50.150002 55.723938
50.150002 55.661957
49.924999 55.616714
49.900002 55.682659
49.775002 55.681309
49.424999 55.729797
49.424999 55.616756
49.500000 55.336334
49.525002 55.379066
49.825001 55.410252
49.400002 55.531971
49.275002 55.571331
49.525002 55.501095
49.450001 55.449837
49.549999 55.560860
49.250000 55.641895
49.299999 55.651550
49.349998 55.757565
49.299999 55.686497
49.625000 55.634632
50.450001 55.101978
51.549999 55.405937
52.099998 55.528824
51.900002 55.321632
51.174999 55.417812
50.575001 55.438534
49.974998 55.453655
49.875000 55.464691
50.150002 55.522224
50.299999 55.564217
50.575001 55.594860
50.799999 55.666706
50.299999 55.719143
49.775002 55.707939
50.000000 55.848198
49.549999 55.950562
49.500000 55.827354
49.674999 55.836395
49.525002 55.842987
49.650002 55.649879
49.349998 55.558422
49.500000 55.590637
49.500000 55.564671
49.474998 55.694149
49.250000 55.640213
49.474998 55.650326
49.450001 55.657715
49.400002 55.861019
49.700001 55.860966
50.950001 55.761959
51.750000 55.838142
52.200001 55.943218
51.775002 55.821999
51.174999 55.733524
50.500000 55.767914
50.200001 55.891968
49.900002 55.636150
50.174999 55.548405
50.400002 55.583317
50.299999 55.509846
50.424999 55.654144
50.250000 55.611015
49.775002 55.629013
49.424999 55.543201
49.224998 55.628998
49.250000 55.691624
49.625000 55.687851
49.474998 55.685097
49.625000 55.782040
49.349998 55.704361
49.200001 55.647667
49.099998 55.507332
49.400002 55.553345
49.299999 55.636406
49.474998 55.548592
50.150002 55.583458
50.900002 55.509949
51.849998 55.703693
52.275002 55.795620
51.750000 55.862709
50.625000 55.812714
50.200001 55.677273
49.525002 55.726852
49.974998 55.713562
50.025002 55.703865
50.375000 55.845222
50.924999 55.898911
50.325001 55.740181
50.000000 55.376930
49.799999 55.458176
49.575001 55.566948
49.625000 55.497898
49.775002 55.546459
49.625000 55.532421
49.900002 54.235725
49.775002 54.674751
49.375000 54.945694
49.400002 55.143436
49.775002 55.188797
51.000000 55.370342
52.200001 55.502846
52.924999 55.599548
53.200001 55.769093
52.299999 55.694908
51.825001 55.640774
51.099998 55.700218
50.799999 55.842560
50.500000 55.847485
50.575001 55.702648
50.750000 55.695892
50.599998 55.592010
50.325001 55.714108
50.075001 55.803219
49.625000 55.769299
49.174999 55.744545
49.349998 55.726475
49.275002 55.861725
49.525002 55.861477
49.424999 55.811813
49.450001 55.676613
49.275002 55.528454
49.424999 55.519283
49.375000 55.611546
50.250000 55.629402
51.224998 55.790882
52.099998 55.760288
52.474998 55.737965
52.000000 55.672192
51.599998 55.822105
50.700001 55.832561
50.325001 55.691757
49.875000 55.588989
49.875000 55.513981
49.924999 55.607681
49.674999 55.676064
49.775002 55.429100
49.599998 55.644684
49.400002 55.604111
49.299999 55.574497
49.250000 55.651840
49.325001 55.658821
49.349998 55.713387
49.075001 55.703735
49.250000 55.696686
49.224998 55.543110
49.200001 55.678417
48.775002 55.727692
48.700001 55.714176
48.825001 55.308475
49.900002 55.408215
51.099998 55.530483
52.400002 55.471291
52.599998 55.625996
52.125000 55.788387
51.325001 55.708996
50.924999 55.651047
50.650002 55.806671
50.299999 55.771820
50.224998 55.795860
50.174999 55.763924
50.000000 55.740616
50.025002 55.674126
50.000000 55.823521
49.450001 55.784115
49.375000 55.854309
49.299999 55.806583
49.474998 55.969666
49.450001 55.742340
49.450001 55.823822
49.275002 55.784332
49.349998 55.903946
49.325001 55.793339
49.424999 55.712605
49.349998 55.752644
49.275002 55.880817
49.049999 55.924892
49.174999 55.858097
49.349998 55.809349
50.375000 55.674812
52.025002 55.873497
53.000000 55.969025
52.875000 55.989269
52.474998 56.004044
51.474998 55.717945
51.000000 55.855499
50.750000 55.856930
50.450001 55.857975
50.424999 55.957703
50.299999 55.832565
50.375000 55.741238
50.400002 55.773540
50.150002 55.896072
49.849998 55.936028
49.525002 55.866230
49.700001 55.815285
49.375000 55.728619
49.750000 55.863289
49.349998 55.912098
49.250000 55.947716
49.400002 55.676849
49.224998 55.874981
49.375000 55.871151
49.200001 55.769402
49.025002 55.744617
48.875000 55.726528
48.724998 55.663845
49.599998 55.618095
50.700001 55.683666
51.599998 55.682045
52.200001 55.829292
52.375000 55.788326
51.700001 55.758430
50.549999 55.687130
50.075001 55.833008
49.549999 55.791042
49.750000 55.562496
50.025002 55.296730
50.174999 55.300678
49.875000 55.501480
49.625000 55.598557
49.349998 55.619923
49.400002 55.783958
49.049999 55.705761
49.125000 55.648685
49.400002 55.705994
49.025002 55.698334
48.849998 55.742226
48.924999 55.625824
49.025002 55.639828
48.875000 55.600567
49.099998 55.720348
48.825001 55.659340
48.724998 55.466366
48.525002 55.523449
48.724998 55.763023
50.150002 55.789440
51.224998 55.858200
52.000000 55.908382
51.825001 55.994484
51.375000 56.007851
50.549999 55.869167
50.174999 55.866909
49.750000 55.815784
49.375000 55.827946
49.424999 55.688385
49.599998 55.685486
49.474998 55.881283
49.150002 55.776794
48.900002 55.700535
49.000000 55.595394
48.924999 55.617615
48.924999 55.633839
48.900002 55.695152
48.950001 55.640949
49.075001 55.650864
48.875000 55.806538
48.724998 55.722244
48.674999 55.858635
49.150002 55.859222
49.200001 55.958607
48.875000 55.932190
48.549999 55.764462
48.625000 55.642052
49.025002 55.602188
50.075001 55.721539
50.875000 55.660206
51.250000 55.664917
51.000000 55.470448
50.599998 55.427471
50.450001 55.643494
49.650002 55.702206
49.500000 55.695568
49.400002 55.839172
49.349998 55.993450
49.424999 55.858662
49.424999 55.859245
49.150002 55.810181
48.974998 55.823860
48.900002 55.784359
48.924999 55.557617
48.900002 55.491089
49.000000 55.689930
48.599998 55.736092
49.025002 55.720306
48.950001 55.708782
49.075001 55.749855
49.099998 55.829304
48.674999 55.738857
48.875000 55.722328
48.849998 55.858696
49.275002 55.958221
48.974998 55.832943
49.525002 55.840473
50.700001 55.697521
51.099998 55.741634
51.275002 55.526436
50.849998 55.567291
50.099998 55.498150
49.750000 55.497169
49.099998 55.298527
49.224998 55.301991
49.500000 55.304523
49.575001 55.306366
49.775002 55.456154
49.500000 55.515995
49.349998 55.559662
49.400002 55.739975
49.349998 55.673656
49.375000 55.328384
49.424999 55.472221
49.150002 55.428764
49.325001 55.298088
49.375000 55.301666
49.525002 55.403244
49.049999 55.378426
49.075001 55.558216
49.375000 55.639961
49.250000 55.650143
49.799999 55.558617
50.650002 55.788689
51.375000 55.907139
51.950001 55.894619
51.849998 55.934967
51.549999 56.013889
50.849998 55.576702
50.375000 55.554493
50.025002 55.637245
50.250000 55.450245
50.299999 55.561161
50.325001 55.493675
50.450001 55.444416
50.125000 55.408470
50.150002 55.580147
49.625000 55.557011
49.125000 55.490643
49.250000 55.442204
49.549999 55.406857
49.500000 55.529495
49.900002 55.569519
49.750000 55.598736
49.750000 55.719013
49.325001 55.856277
49.474998 55.758545
49.150002 55.786171
49.549999 55.756855
50.625000 55.784935
52.000000 55.755955
53.000000 55.734798
52.950001 55.669880
52.424999 55.820419
51.775002 55.930290
51.450001 55.862038
51.250000 55.713264
50.849998 55.901562
50.500000 55.989510
50.549999 55.905266
50.775002 55.794296
50.500000 55.861740
50.200001 55.762527
50.075001 55.690121
50.000000 55.538319
49.875000 55.575958
49.724998 55.603428
49.674999 55.524525
49.775002 55.466938
49.700001 55.375423
49.825001 55.407600
49.349998 55.431080
49.299999 55.497692
49.400002 55.546307
49.250000 55.631271
49.250000 55.693283
49.875000 55.689064
51.549999 55.735458
52.650002 55.818802
52.950001 55.830147
52.700001 55.343639
52.075001 55.483353
51.700001 55.634804
51.200001 55.695858
50.775002 55.591984
50.400002 55.615128
49.974998 55.533058
50.250000 54.236187
50.025002 54.625610
50.025002 54.909824
49.674999 55.018303
49.325001 55.097473
49.549999 55.303692
49.299999 55.404720
48.849998 55.428978
49.025002 55.644592
49.099998 55.851444
49.000000 55.755016
48.875000 55.783592
48.549999 55.903412
48.674999 55.891907
48.599998 55.735062
48.700001 55.620594
48.325001 55.586536
48.825001 55.561676
49.474998 55.543530
50.825001 55.480804
51.400002 55.632950
51.250000 55.842945
50.950001 55.847767
50.349998 55.801811
49.825001 55.768272
49.575001 55.842747
49.224998 55.748669
49.075001 55.680004
49.150002 56.223637
49.250000 56.076138
49.174999 56.017963
49.174999 55.827068
48.900002 55.687744
48.625000 55.586060
48.549999 55.561329
48.700001 55.543274
48.500000 55.480618
48.650002 55.434891
48.450001 55.302555
48.474998 55.453377
48.400002 55.563446
48.450001 55.742737
48.349998 55.675678
48.125000 55.626728
48.325001 55.591011
49.099998 55.663895
49.849998 55.816055
50.325001 55.778664
50.474998 55.652416
49.924999 55.659241
49.625000 55.515781
49.400002 55.510033
49.250000 55.505840
48.950001 55.552258
48.799999 55.487175
48.974998 55.439678
48.599998 55.553448
48.974998 55.587006
48.625000 55.611496
48.549999 55.728329
48.400002 55.665157
48.525002 55.619057
48.424999 55.634888
48.325001 55.547482
48.400002 55.582645
48.349998 55.509354
48.674999 55.455868
48.724998 55.367348
49.200001 55.401703
48.724998 55.426777
49.099998 55.395592
48.775002 55.372829
49.700001 55.356228
50.525002 55.492546
50.549999 55.493076
50.025002 55.542946
49.700001 55.678295
49.400002 55.628639
49.025002 55.592407
49.049999 55.664917
49.150002 55.668358
49.325001 55.670868
49.325001 55.573746
49.275002 55.601814
48.825001 55.473866
48.799999 55.083611
48.674999 55.194614
48.450001 55.325111
48.724998 55.321392
48.724998 55.219727
48.849998 55.195000
48.750000 55.374870
48.849998 55.407192
49.349998 55.579216
48.875000 55.704769
48.724998 55.647964
48.825001 55.705467
48.674999 55.697952
48.500000 55.692471
49.075001 55.589516
50.000000 55.514362
50.575001 55.410042
50.974998 55.432861
51.025002 55.449520
50.500000 55.412193
50.500000 55.384953
50.299999 55.266113
49.924999 55.426769
49.575001 55.445065
49.549999 55.507900
49.700001 55.652725
49.875000 55.758415
49.625000 55.687119
49.400002 55.734039
49.174999 55.718807
49.375000 55.707695
49.174999 55.501659
49.174999 55.549210
49.025002 55.484951
49.325001 55.487534
49.349998 55.538898
49.299999 55.477425
49.224998 55.432560
49.450001 55.399815
49.349998 55.524357
49.275002 55.516296
49.025002 55.460926
48.900002 55.469997
49.450001 55.476620
50.224998 55.481449
51.349998 55.583931
52.150002 55.757687
52.200001 55.785545
51.799999 55.756397
51.500000 55.735123
50.750000 55.571163
50.700001 55.698891
50.450001 55.742630
50.674999 55.725079
50.474998 55.613308
50.549999 55.432774
50.450001 55.548409
50.150002 55.583321
49.950001 55.509846
49.974998 55.654144
49.500000 55.611015
49.575001 55.579540
49.924999 55.655529
49.650002 55.661510
49.825001 55.665867
49.775002 55.471138
50.200001 55.427971
49.724998 55.346985
49.775002 55.386841
49.474998 55.415924
49.474998 55.486633
49.849998 55.439281
50.625000 55.404728
51.700001 55.676380
52.750000 55.627239
52.700001 55.640862
52.099998 55.799240
51.549999 55.716911
51.174999 55.656830
50.750000 55.711933
50.575001 55.702675
50.750000 55.695915
50.924999 55.592022
50.575001 55.516201
50.424999 55.411381
50.275002 55.433838
50.275002 55.450230
50.250000 55.313755
49.875000 55.313107
49.825001 55.312634
49.650002 55.460724
49.775002 55.469852
49.724998 55.427032
49.424999 55.593700
49.700001 55.220547
49.750000 55.294559
49.474998 55.447536
49.325001 55.410744
49.400002 55.482853
49.575001 55.337566
51.025002 55.330479
52.424999 55.275837
53.474998 55.483349
53.275002 55.486362
52.474998 55.538036
51.575001 55.575756
51.200001 55.603283
50.700001 55.623375
50.625000 55.588562
50.325001 55.513668
50.474998 55.656933
50.325001 55.613049
50.525002 55.581020
50.375000 55.211296
50.349998 55.238323
50.275002 55.357018
49.900002 55.344677
49.724998 55.335678
49.575001 55.279625
49.950001 55.337677
49.674999 55.429527
49.474998 55.496559
49.825001 55.446518
49.625000 55.311050
49.750000 55.459568
49.474998 55.469006
49.275002 55.475895
49.325001 55.480923
49.599998 55.484589
50.299999 55.487267
51.799999 55.588184
52.924999 55.612358
53.099998 54.244583
52.700001 54.532780
52.099998 54.842072
51.375000 55.018333
51.250000 55.146973
50.825001 55.290340
50.500000 55.394974
50.500000 55.372383
50.525002 55.504337
50.474998 55.600639
50.299999 55.621445
50.174999 55.587151
50.000000 55.364204
49.875000 55.399403
49.900002 55.425098
49.799999 55.493328
49.674999 55.543121
49.750000 55.579468
49.275002 55.408081
49.650002 55.381950
49.549999 55.362877
49.424999 55.398434
49.575001 55.424389
49.500000 55.492813
49.099998 55.443787
49.799999 55.408012
50.950001 55.530338
52.174999 55.520660
52.750000 55.513592
52.450001 55.706352
51.950001 55.649120
50.825001 55.607357
50.599998 55.675831
50.150002 55.379448
50.099998 55.460007
50.424999 55.419846
50.500000 55.291580
50.099998 55.247444
50.000000 55.314190
49.375000 55.412380
49.349998 55.484047
49.400002 55.437393
49.549999 55.304382
49.325001 55.454704
49.125000 55.465458
49.299999 55.423832
49.474998 55.442921
49.025002 55.555813
48.775002 55.539257
48.849998 55.576645
49.125000 55.504974
49.299999 55.601105
49.525002 55.423870
50.849998 55.393471
51.775002 55.321808
52.474998 55.516903
52.375000 55.609810
51.224998 55.628132
50.599998 55.542557
50.075001 55.381138
49.799999 55.510723
50.000000 55.506344
49.924999 55.453667
49.924999 55.613132
50.000000 55.581081
49.799999 55.557690
49.299999 55.590099
49.000000 55.316879
48.924999 55.414345
48.974998 55.386520
49.250000 55.366215
48.875000 55.301914
48.974998 55.353943
49.049999 55.391918
49.275002 55.370155
49.224998 55.354267
49.049999 55.491112
48.950001 55.590988
49.025002 55.614403
49.025002 55.532528
49.724998 55.720169
50.599998 55.659206
51.974998 55.614708
52.224998 55.681194
51.974998 55.680241
51.500000 55.729023
51.075001 55.616184
50.400002 55.533829
50.075001 55.424252
49.775002 55.443226
49.849998 55.556038
50.025002 55.588894
49.950001 55.513908
49.500000 55.360237
49.375000 55.495468
49.424999 55.544689
49.375000 55.580608
49.375000 55.557343
49.150002 55.738289
49.025002 55.672428
49.075001 55.723324
49.200001 55.612026
49.400002 55.580276
49.325001 55.507629
49.150002 55.454605
48.924999 55.415901
48.875000 55.437138
48.974998 55.452637
48.924999 55.513424
49.424999 55.458836
50.599998 55.320034
51.900002 55.565090
53.049999 55.150192
52.650002 55.292686
51.549999 55.545128
51.025002 55.531448
50.724998 55.521469
50.549999 55.613144
50.299999 55.531612
50.200001 55.571068
50.275002 55.500904
50.750000 55.449699
50.650002 55.362846
50.075001 55.546848
49.799999 55.631668
49.525002 55.545135
49.299999 55.481976
49.224998 55.435879
49.174999 55.550678
49.525002 55.535500
49.575001 55.524426
49.400002 55.664780
49.349998 55.618778
49.125000 55.585205
49.200001 55.659660
49.450001 55.565563
49.500000 55.595844
49.974998 55.518990
51.099998 55.462891
52.224998 55.471436
52.849998 55.279747
52.375000 55.486202
51.474998 55.587406
51.075001 55.512825
50.325001 55.606831
49.950001 55.675446
50.000000 55.676048
50.349998 55.577522
49.974998 55.703537
49.950001 55.647064
49.775002 55.605846
49.750000 55.674725
49.549999 55.675522
49.375000 55.725578
49.224998 55.613678
49.474998 55.532001
49.375000 55.422916
49.575001 55.442253
49.474998 55.505852
49.224998 55.552265
49.275002 55.586143
49.049999 55.511902
48.974998 55.606159
49.049999 55.625477
48.974998 55.540619
49.525002 55.676601
50.799999 55.825317
52.275002 55.735947
53.125000 55.769680
52.700001 55.744820
52.000000 55.825630
51.025002 55.686699
50.500000 55.585300
50.224998 55.511288
49.950001 55.506756
49.875000 55.503448
49.924999 55.451553
49.825001 55.413677
49.650002 55.386036
49.500000 55.514294
49.224998 55.558430
49.099998 55.541161
49.075001 55.676994
49.275002 55.825611
49.125000 55.736156
49.424999 55.769836
49.200001 55.744938
48.974998 55.726761
48.674999 55.614536
48.924999 55.532627
48.625000 55.472855
48.924999 55.478706
48.974998 55.482975
48.849998 55.535568
49.549999 55.474998
50.549999 55.430790
51.750000 55.645920
52.599998 55.605011
51.900002 55.624634
50.950001 55.737919
50.400002 55.672161
50.099998 55.624165
50.099998 55.688095
49.674999 55.685276
49.674999 55.683216
49.500000 55.582752
49.575001 55.509434
49.375000 55.406441
49.450001 55.430237
49.099998 55.447601
48.750000 55.410793
48.799999 55.383934
48.875000 55.364326
48.825001 55.498451
49.099998 55.546867
48.924999 55.582199
49.000000 55.706951
48.950001 55.649555
49.025002 55.607674
48.825001 55.676060
48.625000 55.676491
48.700001 55.726284
49.025002 55.614189
49.950001 55.532375
51.150002 55.423183
52.075001 55.640369
51.875000 55.699924
51.275002 55.693909
50.375000 55.689514
49.575001 55.884232
49.525002 55.877903
49.549999 55.774330
49.625000 55.748211
49.450001 55.828106
49.775002 55.935898
49.500000 55.816650
49.349998 55.828575
49.500000 55.787804
49.099998 55.758045
49.299999 55.637367
49.275002 55.153458
49.150002 55.146629
49.200001 55.240608
49.075001 55.309200
49.250000 55.260307
49.000000 55.274097
48.875000 55.185204
48.750000 55.367722
48.674999 55.401978
49.075001 55.377491
49.025002 55.557541
49.849998 55.540512
51.075001 55.528080
52.224998 55.617970
52.375000 55.782528
51.750000 55.803677
51.125000 55.670673
50.650002 55.573601
50.375000 55.453274
50.325001 55.464413
50.000000 55.472546
50.049999 55.330040
50.224998 55.324993
50.299999 55.222351
50.049999 55.394829
49.724998 55.520721
49.599998 55.563118
49.250000 55.890934
49.250000 55.783833
49.275002 55.705669
49.500000 55.747581
49.325001 55.728687
49.424999 55.714897
49.375000 55.704838
49.299999 55.598534
49.174999 55.471474
49.174999 55.477695
49.400002 55.482235
49.200001 55.535027
49.525002 55.474602
50.200001 55.727375
51.575001 55.565510
53.250000 55.546326
53.400002 55.581802
52.625000 55.657177
51.799999 55.613228
51.075001 55.581154
50.799999 55.656708
50.375000 55.662369
50.750000 55.715973
50.650002 55.705627
50.599998 55.599110
50.375000 55.471893
50.075001 55.725395
50.049999 55.663017
49.700001 55.666973
49.599998 55.570900
49.750000 55.500782
49.575001 55.598045
49.674999 55.619556
49.700001 54.992023
49.450001 55.276211
49.549999 55.483624
49.125000 55.486561
49.424999 55.587669
49.549999 55.611984
49.349998 55.629719
49.150002 55.147877
49.849998 55.192043
50.750000 55.174801
52.075001 55.459087
52.900002 55.617092
52.674999 55.633453
51.849998 55.744354
50.849998 55.775814
50.349998 55.798775
50.400002 55.716572
50.299999 55.607105
50.349998 55.725121
50.400002 55.662815
50.299999 55.617348
50.000000 55.683117
49.950001 55.830074
49.424999 55.788898
49.625000 55.659889
49.174999 55.565731
49.125000 55.645443
49.125000 55.604664
49.275002 55.624382
49.400002 55.539822
49.325001 55.478096
49.325001 55.334095
48.924999 55.624825
48.875000 55.589619
48.900002 55.563927
49.099998 55.743088
49.375000 55.675938
50.349998 55.626919
51.650002 55.690109
52.724998 55.785702
52.450001 55.805992
51.625000 55.771324
51.075001 55.647057
50.375000 55.506886
49.950001 55.503544
49.549999 55.501102
50.099998 55.350880
49.875000 55.340202
50.025002 55.233452
49.775002 55.402939
49.825001 55.477150
49.500000 55.531315
49.299999 55.521374
49.075001 55.662552
49.200001 55.617153
49.150002 55.682976
49.200001 55.582581
49.250000 55.558784
48.974998 55.491936
49.150002 55.443153
48.974998 55.457031
48.900002 55.467148
49.000000 55.474541
49.000000 55.430458
48.750000 55.398277
49.125000 55.275841
50.525002 55.433872
51.875000 55.450256
52.775002 55.610649
52.500000 55.777184
51.799999 55.700821
50.974998 55.496647
50.599998 55.595024
50.174999 55.765781
49.950001 55.741970
50.000000 55.625633
50.075001 55.441769
50.049999 55.357059
49.875000 55.394188
50.025002 55.470772
49.299999 54.982391
49.750000 55.071262
49.200001 55.037170
49.450001 55.259674
49.375000 55.323116
49.375000 55.319942
49.500000 55.565018
49.424999 55.545967
49.224998 55.532063
49.349998 55.571396
48.924999 55.501144
49.200001 55.598309
49.474998 55.520786
49.775002 55.365246
51.075001 55.350685
52.275002 55.537975
52.599998 55.625195
52.375000 55.639370
51.400002 55.649712
50.700001 55.261429
50.150002 55.423351
49.724998 55.492054
49.900002 55.492718
50.150002 55.691113
50.224998 55.638000
50.099998 55.599232
49.799999 55.669895
49.500000 55.770954
49.224998 55.745754
49.299999 55.628395
49.275002 55.542747
49.075001 55.727631
49.200001 55.268818
49.275002 55.379269
49.424999 55.459881
49.125000 55.419754
49.049999 55.538910
49.000000 55.625870
48.900002 55.590385
49.049999 55.514999
49.125000 55.657906
50.250000 55.613758
51.599998 55.581539
52.549999 55.656990
52.424999 55.662571
51.775002 55.716125
51.200001 55.705738
50.450001 55.698151
50.325001 55.148342
50.250000 55.241867
49.950001 55.409073
50.000000 55.382675
50.150002 55.363411
49.875000 55.349346
49.450001 55.487518
49.500000 55.538887
49.075001 55.477413
48.775002 55.630474
48.750000 55.742176
48.924999 55.675266
49.025002 55.725395
48.674999 55.712498
48.700001 55.703087
48.575001 55.597260
48.474998 55.520023
48.750000 55.414169
48.650002 55.584312
48.575001 55.659004
48.799999 55.565090
49.900002 55.496540
51.049999 55.446507
51.599998 55.657394
51.424999 55.712349
51.375000 55.702976
50.849998 55.646656
50.549999 55.753990
50.125000 55.683887
49.424999 55.731682
49.500000 55.717087
49.599998 55.706436
49.375000 55.599701
49.424999 55.620762
49.174999 55.487690
48.875000 55.489529
48.700001 55.490871
48.400002 55.442371
48.474998 55.406979
48.775002 55.529583
48.950001 55.619064
48.700001 55.585419
48.849998 55.560852
48.424999 55.691364
48.474998 55.638184
48.424999 55.599365
48.549999 55.669998
48.625000 55.375187
48.450001 55.456905
49.099998 55.417583
49.825001 55.388885
50.900002 55.417416
50.924999 55.438244
51.000000 55.453442
50.450001 55.415054
49.924999 55.387039
49.599998 55.267639
49.049999 55.427887
49.099998 55.445881
49.375000 55.508499
49.450001 55.653160
49.525002 55.610302
49.224998 55.579014
48.900002 55.655144
48.674999 55.809662
48.750000 55.971912
48.825001 55.496586
48.924999 55.446541
48.799999 55.360542
48.599998 55.396729
48.750000 55.423145
48.900002 55.392948
48.974998 55.370903
48.875000 55.552734
48.924999 55.635960
48.875000 55.597744
48.750000 55.619331
49.224998 55.734047
49.700001 54.382874
50.575001 54.683186
50.950001 55.001328
51.275002 55.184044
50.950001 55.317398
50.599998 55.315765
50.500000 55.314575
50.325001 55.264229
50.099998 55.326435
49.700001 55.421318
49.875000 55.490570
49.700001 55.442154
49.724998 55.406822
49.849998 55.529465
49.424999 55.520023
49.125000 55.513126
48.950001 55.656536
48.900002 55.761196
49.099998 55.689148
48.625000 55.735519
48.924999 55.868328
48.924999 55.816818
48.950001 55.680267
49.000000 55.580601
48.875000 55.458385
48.900002 55.468143
48.700001 55.475269
48.825001 55.529942
48.799999 55.470894
49.474998 55.328831
50.099998 55.472553
51.000000 55.478481
51.500000 55.532288
51.700001 55.719997
51.424999 55.659084
51.025002 55.614620
50.799999 55.681129
50.400002 55.680191
50.174999 55.728985
49.900002 55.616158
49.750000 55.533813
49.775002 55.374760
49.900002 55.407112
49.625000 55.430721
49.299999 55.299519
49.275002 55.302711
49.000000 55.453487
49.099998 55.514042
49.000000 55.607723
49.075001 55.527657
49.075001 55.271305
49.250000 55.331596
48.900002 55.375607
48.799999 55.457207
48.750000 55.516766
48.700001 55.560226
48.575001 55.493000
48.799999 55.443920
49.025002 55.358631
49.299999 55.395332
50.200001 55.422123
51.200001 55.392197
52.049999 55.469311
51.799999 55.426643
51.650002 55.642891
51.125000 55.602802
50.900002 55.573544
50.599998 55.700630
50.200001 55.644939
50.299999 55.604298
50.099998 55.624119
49.950001 55.539631
49.750000 55.576920
49.724998 55.406219
49.525002 55.380592
49.349998 55.312408
49.450001 55.361603
49.200001 55.397507
49.125000 55.275276
49.400002 55.285023
49.474998 55.193180
49.700001 55.373539
49.500000 55.455700
49.224998 55.416702
49.099998 55.487198
48.974998 55.390213
49.125000 55.418388
49.775002 55.488426
50.849998 55.440590
51.799999 55.554115
52.224998 55.587490
52.174999 55.611847
51.500000 55.580143
50.799999 55.557011
50.575001 55.540127
50.549999 55.379368
50.599998 55.360996
50.599998 55.248627
50.450001 55.364532
50.400002 55.449127
50.224998 55.411907
50.349998 55.582657
49.924999 55.707287
49.750000 55.649796
49.799999 55.706806
49.724998 55.599968
49.575001 55.620956
49.500000 55.438358
49.500000 55.404049
49.275002 55.329525
49.474998 55.374092
49.375000 55.406628
49.650002 55.479843
50.224998 55.434326
51.474998 55.401104
52.750000 55.574772
52.849998 55.652042
52.650002 55.560005
52.349998 55.740227
51.625000 55.673840
51.349998 55.625393
51.000000 55.639515
50.674999 55.649818
50.825001 55.607864
50.700001 55.527756
50.599998 55.469288
50.474998 55.377144
50.075001 55.408852
49.950001 55.431992
49.575001 55.399395
49.549999 55.375607
49.950001 55.506691
49.875000 55.602356
49.575001 55.622700
49.375000 55.538589
49.500000 55.675114
49.625000 55.626320
50.525002 55.590714
51.900002 55.663681
53.150002 55.568497
53.375000 55.647465
52.849998 55.655624
51.849998 55.661575
51.174999 55.517487
51.450001 55.659714
50.750000 55.615086
50.674999 55.631989
50.525002 55.545364
50.200001 55.383186
49.924999 55.512215
50.049999 55.556908
49.875000 55.490570
49.849998 55.491631
49.750000 55.492413
49.500000 55.492977
49.799999 55.592346
49.200001 55.516434
49.150002 55.559986
49.299999 55.393856
49.625000 55.371567
50.875000 55.305820
52.224998 55.356800
52.775002 55.492958
52.750000 55.542854
52.200001 55.579269
51.575001 55.506889
51.375000 55.602501
50.650002 55.622807
50.375000 55.340752
50.125000 55.382290
50.275002 55.561039
49.950001 55.543068
49.750000 55.628902
49.299999 55.642075
49.049999 55.651684
48.900002 55.460785
48.900002 55.420410
48.900002 55.390953
48.900002 55.418926
49.150002 55.439342
48.974998 55.503727
48.724998 55.451759
48.650002 55.710705
49.375000 55.701782
50.825001 55.645782
52.049999 55.654396
52.400002 55.809113
52.150002 55.724121
51.625000 55.662090
51.250000 55.715775
50.650002 55.606518
50.049999 55.625736
49.875000 55.540810
49.724998 55.379868
49.674999 55.311878
49.575001 55.361214
49.075001 55.397221
48.900002 55.472988
48.900002 55.429325
48.875000 55.545895
48.724998 55.630970
48.424999 55.594101
48.625000 55.517719
48.549999 55.511444
48.599998 55.704788
48.625000 55.647976
48.575001 55.705475
48.549999 55.598995
48.375000 55.620247
48.875000 55.437840
50.025002 55.304707
51.099998 55.257027
51.750000 55.519100
51.599998 55.611412
51.025002 55.629307
50.400002 55.543415
49.924999 55.381767
49.724998 53.878372
49.750000 54.314980
49.450001 54.584156
49.525002 54.978531
49.400002 55.117920
49.125000 55.219658
48.950001 55.392868
48.799999 55.370846
48.849998 55.404259
48.424999 55.379162
48.200001 55.360844
48.299999 55.297997
48.275002 55.351082
48.400002 54.796078
48.599998 55.034241
48.650002 55.109108
48.400002 55.312183
48.375000 55.460392
49.000000 55.469612
50.025002 55.426861
50.700001 55.593571
51.099998 55.566811
51.025002 55.547276
50.750000 55.582497
50.349998 55.509243
50.075001 55.554741
49.849998 55.390030
49.599998 55.368774
49.500000 55.551182
49.450001 55.535870
49.224998 55.524700
49.075001 55.368103
49.000000 55.352768
48.849998 55.242626
48.549999 55.409634
48.625000 55.432560
48.724998 55.399815
48.775002 55.573833
48.900002 55.354485
48.599998 55.392315
48.525002 55.518883
48.424999 55.066986
48.400002 55.281441
48.674999 55.190563
48.750000 55.223198
49.250000 55.197536
50.450001 55.277763
51.150002 55.435276
51.450001 55.500755
50.900002 55.449585
50.400002 55.560673
50.224998 55.592281
49.875000 55.565865
49.724998 55.497105
50.000000 55.644840
49.849998 55.604225
49.674999 55.574589
49.775002 55.651909
49.549999 55.807304
49.125000 55.722801
48.799999 55.611649
48.775002 55.431564
48.625000 55.349606
49.075001 55.388756
48.974998 55.417320
49.025002 55.388695
48.799999 55.367802
48.875000 55.253593
48.825001 55.417633
49.000000 55.388924
48.750000 55.367970
49.000000 55.550594
48.849998 55.535439
49.200001 55.524380
49.924999 55.565788
50.950001 55.744450
51.575001 55.775883
51.875000 55.749344
51.200001 55.532059
50.625000 55.422955
50.150002 55.442284
49.750000 55.555347
49.575001 55.588398
49.750000 55.513546
49.974998 55.607368
50.174999 55.626350
50.025002 55.640213
49.924999 55.551369
50.000000 55.536003
49.500000 55.524796
49.625000 55.516613
49.349998 55.708553
49.299999 55.601250
49.500000 55.621891
49.400002 55.439037
49.549999 55.404549
49.275002 55.329887
49.174999 55.374363
49.375000 55.406822
49.325001 55.282070
49.474998 55.289986
49.474998 55.196800
50.400002 55.376183
51.674999 55.408154
52.349998 55.480957
52.049999 55.682537
51.625000 55.631741
50.924999 55.594666
50.450001 55.617085
50.049999 55.534489
50.099998 55.573170
50.375000 55.502438
50.299999 55.351852
50.299999 55.291435
50.349998 55.346294
50.224998 55.386337
49.900002 55.465038
49.525002 55.423519
49.474998 55.541660
49.700001 55.578392
49.325001 55.605209
49.625000 55.525829
49.650002 55.665802
49.799999 55.767963
49.674999 55.694088
49.775002 55.739124
49.674999 55.623562
49.825001 55.588699
50.500000 55.414814
51.575001 55.485817
52.625000 55.488167
52.900002 55.638317
52.400002 55.698429
51.849998 55.593857
51.125000 55.517536
50.924999 55.362877
50.875000 55.497398
50.674999 55.496613
50.799999 55.446564
50.775002 55.607960
50.724998 55.676266
50.375000 55.231327
50.224998 55.401390
49.825001 55.377060
49.900002 55.260349
49.875000 55.175175
50.049999 55.113003
49.724998 55.117111
50.000000 55.219067
49.799999 55.293476
49.674999 55.298306
49.599998 55.301830
49.400002 55.304401
49.049999 55.454723
49.025002 55.465466
49.724998 55.374355
51.000000 55.406815
52.625000 55.430504
53.349998 55.447800
53.174999 55.361458
52.500000 55.248962
51.799999 55.414253
51.549999 55.485409
51.099998 55.438389
50.650002 55.354588
50.575001 55.392387
50.474998 55.419975
50.325001 55.390633
50.375000 55.369217
50.125000 55.254623
50.150002 55.368908
49.775002 55.402843
49.650002 55.378128
49.750000 55.558002
49.525002 55.540855
49.525002 55.528332
49.349998 55.321278
49.450001 55.565994
49.349998 55.447727
49.424999 55.311928
49.424999 55.212811
49.075001 55.140472
49.349998 55.236115
50.325001 55.305920
51.750000 55.307388
52.775002 55.407421
52.924999 55.381470
52.299999 55.510963
51.900002 55.506516
51.299999 55.552750
50.825001 55.537014
50.200001 55.525532
50.174999 55.368713
50.400002 55.501656
50.349998 55.648159
50.174999 55.557171
49.900002 55.490765
49.799999 55.442295
49.250000 55.357449
49.599998 55.394474
49.674999 55.470978
49.674999 55.130978
49.424999 55.179707
49.450001 55.116310
49.150002 55.317444
49.325001 55.266319
49.025002 55.278484
48.799999 55.336845
49.000000 55.181522
49.900002 55.266079
51.500000 55.426750
52.650002 55.642967
52.900002 55.652340
52.275002 55.560223
51.724998 55.591949
51.125000 55.466663
50.724998 55.474190
50.525002 55.281757
50.625000 55.190800
50.375000 55.223370
50.275002 55.395573
50.224998 55.471783
50.125000 55.477917
49.775002 55.432919
49.500000 55.400070
49.349998 55.574024
49.325001 55.552540
49.525002 55.635822
49.724998 55.795563
49.375000 55.763706
49.625000 55.641502
49.325001 55.552311
49.125000 55.437733
49.025002 55.453072
49.075001 55.464268
49.174999 55.422955
50.000000 55.392807
51.750000 55.370804
52.775002 55.503181
52.950001 55.451359
52.650002 55.265102
52.075001 55.426033
51.500000 55.444530
51.075001 55.458031
51.000000 55.517368
50.750000 55.461712
50.450001 55.470573
50.674999 55.427559
50.325001 55.396160
50.025002 55.323769
49.825001 54.726665
49.349998 54.934101
49.250000 54.937061
49.424999 55.038181
49.200001 55.260414
49.349998 55.373131
49.375000 55.257484
49.099998 55.272041
48.950001 55.480576
48.950001 55.484337
48.775002 55.487080
48.900002 55.538570
48.900002 55.477184
49.224998 55.531342
50.075001 55.471916
51.575001 55.428535
52.700001 55.347401
52.924999 55.535580
52.525002 55.524487
52.099998 55.565865
51.549999 55.546589
51.250000 55.779911
51.025002 55.554371
50.375000 55.538200
50.150002 55.328472
50.400002 55.521767
50.049999 55.514397
49.625000 55.509026
49.349998 55.554585
49.025002 55.488876
49.150002 55.490395
48.974998 54.848274
49.099998 54.973381
49.025002 55.015209
49.250000 55.144691
48.825001 54.843361
48.825001 54.969795
48.599998 55.062069
48.750000 54.832539
48.500000 55.060852
48.650002 55.079044
48.750000 55.141808
49.275002 55.237087
50.275002 55.306629
51.400002 55.357391
52.275002 55.493389
52.224998 55.543175
51.474998 55.678463
50.924999 55.480324
50.075001 55.434677
49.625000 55.302399
49.549999 55.354294
49.799999 55.392178
49.950001 55.271385
49.799999 55.084270
49.750000 55.046658
49.325001 55.266605
48.825001 55.328171
48.900002 55.323627
48.775002 55.518234
48.950001 55.660263
48.924999 55.615482
48.799999 55.632278
48.799999 55.545574
48.700001 55.581253
48.775002 55.508339
48.750000 55.455124
48.674999 55.366806
48.575001 55.599220
48.625000 55.570934
49.674999 55.302887
50.775002 55.305172
51.900002 55.455280
52.075001 55.564838
52.000000 55.545837
51.400002 55.581444
50.924999 55.557961
50.400002 55.540821
50.224998 55.528305
49.924999 55.321255
49.900002 55.318584
49.950001 55.366108
49.974998 55.351318
50.099998 55.439476
49.450001 55.305904
49.200001 55.356861
48.799999 55.196129
48.974998 55.227261
48.700001 55.249981
49.099998 55.167603
49.049999 55.255920
49.049999 55.270897
48.950001 55.281826
48.900002 55.339287
48.900002 55.480175
48.424999 55.484047
48.700001 55.536350
48.799999 55.475571
48.950001 55.530163
50.000000 55.471054
51.375000 55.427910
52.325001 55.445900
52.625000 55.459030
51.950001 55.567577
51.299999 55.597313
50.950001 55.421101
50.625000 55.292500
50.400002 55.446026
50.250000 55.360168
50.099998 55.346981
50.099998 55.386841
49.724998 55.020092
49.500000 55.148258
49.674999 55.340763
49.299999 55.332821
49.049999 55.376495
49.250000 55.259937
49.025002 55.273830
49.075001 55.036572
49.200001 55.160282
49.224998 55.201096
49.200001 55.329838
49.200001 55.324848
48.900002 55.222248
49.049999 55.394756
48.775002 55.421703
48.974998 55.391891
49.549999 55.172218
51.125000 55.259285
52.025002 55.322830
52.549999 55.468166
52.174999 55.524761
51.674999 55.615547
51.174999 55.434410
50.900002 55.203247
50.349998 55.133495
50.224998 55.231018
50.174999 55.104290
50.299999 55.061275
50.150002 55.128838
50.075001 55.079185
50.049999 55.240871
50.099998 55.309391
49.525002 55.309921
49.500000 55.508221
49.325001 55.405560
49.224998 55.429588
49.299999 55.496605
49.075001 55.693951
48.974998 55.689548
48.849998 55.389462
49.150002 55.368359
48.900002 55.303478
49.500000 55.355087
49.674999 55.392750
51.000000 55.370762
52.325001 55.354713
53.174999 55.343002
52.924999 55.482891
52.075001 55.486027
51.150002 55.389359
50.875000 55.417763
50.674999 55.438496
50.349998 55.453625
50.375000 55.514145
50.299999 55.459358
50.325001 55.419373
50.125000 55.390194
49.849998 55.269936
49.625000 55.231647
49.450001 55.302658
49.275002 55.354485
49.224998 55.342834
49.474998 55.334328
49.150002 55.328121
49.075001 55.472034
49.224998 55.478100
49.099998 55.433052
49.099998 55.598091
48.875000 55.669064
48.849998 55.621906
49.275002 55.636971
49.775002 55.351089
51.000000 55.439312
52.075001 55.503700
52.424999 55.550694
52.025002 55.535511
51.400002 55.524437
50.750000 55.516350
50.549999 55.460968
50.349998 55.420547
50.075001 55.490005
49.924999 55.590179
50.049999 55.564335
49.875000 55.495987
49.575001 55.644024
49.299999 55.603630
49.325001 55.574146
49.174999 55.453678
48.974998 55.415226
48.825001 55.535603
48.974998 55.376060
49.099998 55.358582
48.849998 55.296341
48.474998 55.349876
48.599998 55.339470
48.674999 55.430832
48.700001 55.002720
48.700001 54.987141
48.775002 55.173695
48.974998 55.260357
50.075001 55.274136
51.700001 55.482109
52.224998 55.683372
51.424999 55.632351
50.900002 55.644588
50.650002 55.801960
50.099998 55.718899
49.924999 55.509842
49.674999 55.456219
49.599998 55.367607
49.775002 55.401894
49.599998 55.426910
49.674999 55.395691
49.224998 55.372910
48.924999 55.257320
48.799999 55.370880
49.025002 55.354797
49.275002 55.343063
49.299999 55.383980
49.049999 55.364361
49.025002 55.399517
49.000000 55.474667
48.974998 55.628456
48.950001 55.592270
48.900002 55.417416
48.625000 55.289810
48.900002 55.246151
49.724998 55.313248
50.599998 55.362213
51.400002 55.447433
51.549999 55.509628
51.299999 54.961273
50.575001 55.204288
50.200001 55.282692
50.025002 55.290436
49.849998 55.296085
49.900002 55.349689
49.500000 55.388813
49.625000 55.516327
49.474998 55.460953
49.299999 55.519497
49.424999 55.364307
49.174999 55.350002
48.950001 55.290085
49.150002 55.345310
49.000000 55.385616
49.250000 55.217110
49.125000 55.242577
48.974998 55.162197
48.900002 55.301449
48.775002 55.254646
48.625000 55.121529
48.950001 55.222298
48.950001 55.196877
49.299999 55.277283
49.424999 55.385448
50.099998 55.365433
51.099998 55.449783
51.700001 55.412380
51.775002 55.385090
51.275002 55.365170
51.375000 55.548550
50.750000 55.533947
50.325001 55.473816
50.549999 55.429928
50.250000 55.298935
50.325001 55.401249
50.200001 55.179047
49.875000 55.214787
49.799999 55.438789
49.599998 55.453846
49.750000 55.464825
49.349998 54.978054
49.275002 55.068096
49.250000 55.232773
49.474998 55.155045
49.500000 55.197273
49.200001 55.178616
49.174999 55.263954
49.000000 55.326237
48.950001 55.223263
49.075001 55.247063
49.200001 55.165474
49.099998 55.155411
49.674999 55.197544
50.674999 55.228287
51.724998 55.448647
52.525002 55.708431
51.950001 55.650635
51.500000 55.707413
51.150002 55.600414
50.724998 55.571804
50.424999 55.402485
50.500000 55.377861
50.450001 55.310417
50.700001 55.360153
50.549999 55.198532
50.275002 55.130051
50.049999 55.179031
49.900002 55.115818
49.525002 55.267605
49.474998 55.279423
49.650002 55.288052
49.950001 55.343822
49.674999 55.384533
49.525002 55.414242
49.650002 55.435925
49.599998 55.649662
49.625000 55.607746
49.400002 55.527672
49.450001 55.370270
49.750000 55.304874
50.549999 55.356110
51.950001 55.492458
53.000000 55.542492
53.125000 55.381088
52.750000 55.461205
51.799999 55.569164
51.275002 54.064617
51.200001 54.500385
50.900002 54.719479
51.000000 55.077290
50.775002 55.190006
50.849998 55.321747
50.700001 55.121021
50.500000 55.271404
50.500000 55.183239
50.099998 55.217854
50.000000 55.193630
50.000000 55.274918
49.799999 55.334248
49.924999 54.981705
49.799999 55.070763
49.525002 55.036804
49.450001 55.259411
49.575001 55.322926
49.724998 55.319801
49.875000 55.366997
49.599998 55.302483
49.549999 55.354355
50.250000 55.441696
52.250000 55.505444
53.200001 55.601444
53.849998 55.523079
53.424999 55.465874
52.750000 55.424133
52.174999 55.443142
51.400002 55.259106
51.000000 55.174263
50.974998 55.211296
50.799999 55.337284
50.924999 55.478718
50.575001 55.482979
50.474998 55.436615
50.000000 55.600689
49.650002 55.572006
49.424999 55.551067
49.525002 55.634747
49.450001 55.745300
49.349998 55.677547
49.075001 55.479656
49.049999 55.434185
49.224998 55.302044
49.125000 55.255081
49.299999 55.270287
49.224998 55.380341
49.099998 55.361706
48.950001 55.249142
48.974998 55.364906
49.525002 55.399914
51.075001 55.375988
52.250000 55.556446
52.750000 55.638672
52.400002 55.302849
51.825001 55.453587
51.325001 55.662560
50.549999 55.666637
50.250000 55.570660
50.174999 55.401653
49.974998 55.129860
49.775002 55.228371
49.599998 55.300266
49.799999 55.204304
49.825001 55.233223
49.474998 55.353283
49.099998 55.440914
49.174999 55.455391
48.924999 55.416477
49.000000 55.437557
49.025002 55.601376
48.900002 55.572506
49.000000 55.600906
48.950001 55.522686
48.799999 55.515072
48.724998 55.361080
48.400002 55.050770
48.875000 55.071690
50.250000 55.185921
51.299999 55.269287
52.049999 55.379608
52.125000 55.262207
51.549999 55.275482
50.849998 55.384136
50.650002 55.364471
50.275002 55.152206
49.974998 55.244682
49.750000 55.460613
49.750000 55.469769
50.000000 55.525928
49.775002 55.467960
49.400002 55.475136
49.174999 55.232971
49.025002 55.254147
48.825001 55.220127
48.950001 55.294254
48.775002 55.348351
49.000000 55.239395
48.900002 55.258835
48.950001 55.174068
48.674999 55.310116
48.724998 55.359928
48.525002 55.346802
48.650002 55.386703
48.650002 55.366348
49.500000 55.400970
50.525002 55.475719
51.799999 55.530270
52.500000 55.421646
52.500000 55.391853
52.150002 55.469059
51.424999 55.475941
51.250000 55.480953
50.474998 55.484612
50.474998 55.437805
50.325001 55.403648
50.250000 55.279751
50.125000 55.387249
49.674999 55.416222
49.700001 55.387890
49.200001 55.565132
49.125000 55.546051
49.224998 55.532127
48.974998 55.571442
48.849998 55.303261
48.799999 55.404408
48.650002 55.280304
48.900002 55.189735
48.575001 55.123631
48.799999 55.223827
48.924999 55.296951
48.799999 55.300842
48.474998 55.303680
48.525002 55.206795
49.424999 55.383480
50.849998 55.413471
52.000000 55.484840
52.575001 55.635895
52.174999 55.597694
51.575001 55.569817
51.025002 55.351551
50.974998 55.439651
50.674999 55.454472
50.525002 55.415806
50.724998 55.486546
50.424999 55.340260
50.424999 55.381935
49.974998 55.412342
49.450001 55.286098
49.049999 55.193966
49.025002 55.225685
48.924999 55.347786
49.150002 55.535858
49.224998 55.475212
49.174999 55.480427
48.875000 55.583183
49.075001 55.460270
49.125000 55.568481
48.924999 55.499016
48.875000 55.497799
49.174999 55.447430
49.250000 55.311710
50.525002 55.212654
52.075001 55.288799
52.700001 55.443329
52.549999 55.358200
51.974998 55.345543
51.650002 55.336308
51.125000 55.428524
50.849998 55.396870
50.599998 55.373768
50.224998 55.158993
50.224998 54.952759
50.099998 55.099110
49.950001 55.255413
49.575001 55.270527
49.450001 55.380512
48.974998 55.262867
48.700001 55.177013
48.575001 55.064869
48.825001 55.180935
48.875000 55.265648
48.825001 55.179035
48.799999 55.214783
48.625000 55.141914
48.875000 54.841335
48.724998 55.017796
48.700001 55.097099
48.750000 55.154984
49.075001 55.395142
49.849998 55.421989
51.299999 55.540543
52.200001 55.577579
52.450001 55.604614
52.500000 55.525387
52.400002 55.467564
52.125000 55.375881
51.799999 55.407932
50.974998 55.431320
50.849998 55.398911
50.275002 55.276299
50.099998 55.186810
50.049999 55.319416
49.775002 55.366718
49.700001 55.153847
49.549999 55.245876
49.250000 55.214085
49.200001 55.289845
48.849998 55.394611
49.075001 55.372120
48.799999 55.454666
48.950001 55.415947
49.025002 55.387695
48.700001 55.317593
48.974998 55.365387
48.700001 55.350784
48.799999 54.004192
48.900002 54.357334
48.900002 54.516109
49.674999 54.829914
51.299999 54.861015
52.549999 55.032158
53.375000 55.750816
53.599998 55.681568
53.275002 55.631031
53.075001 55.693104
52.525002 55.837372
51.775002 55.794224
51.025002 55.564816
50.875000 55.496342
50.825001 55.396881
50.650002 55.423256
50.474998 55.442505
50.424999 55.506035
49.700001 55.354481
49.625000 55.491268
49.375000 55.343708
48.974998 55.384449
48.900002 55.364700
49.125000 55.399765
49.250000 55.425362
49.125000 55.444038
48.900002 55.556629
48.849998 55.490368
48.450001 55.491486
48.450001 55.343864
48.525002 55.236122
48.525002 55.206970
48.974998 55.284649
49.200001 55.143425
50.700001 55.188793
52.049999 55.320862
53.000000 55.219341
52.875000 55.392635
52.224998 55.420155
51.674999 55.440243
51.325001 55.652824
50.775002 55.610054
50.474998 55.578835
50.474998 55.605530
50.099998 55.526058
50.025002 55.468048
49.650002 55.326759
49.349998 55.223637
48.974998 55.197857
49.200001 55.277996
48.799999 55.138573
48.724998 55.086292
48.650002 55.048134
48.599998 55.267681
48.224998 55.378441
48.549999 55.310837
48.450001 55.310978
48.375000 55.360558
48.150002 55.297783
48.275002 55.350925
48.450001 55.439194
48.099998 55.404659
48.599998 55.478409
48.924999 55.235363
50.099998 55.156937
50.750000 55.099693
51.400002 55.206356
51.400002 55.383163
50.974998 55.165844
50.500000 55.205154
50.450001 55.134884
49.950001 55.281517
50.150002 55.339062
50.125000 55.331573
49.700001 55.375591
49.650002 55.308758
49.549999 55.358944
49.250000 55.197647
48.875000 55.228367
48.450001 55.250786
48.700001 55.366108
48.950001 55.351318
48.500000 55.291046
48.474998 55.346008
48.700001 54.990295
48.674999 55.077026
48.275002 55.140335
48.500000 55.087578
48.625000 55.246990
48.549999 55.313862
48.349998 54.917347
48.349998 55.221710
48.575001 55.245930
49.450001 55.313084
50.349998 55.461052
51.400002 55.519569
51.599998 55.611759
51.474998 55.035812
50.775002 55.011284
50.174999 55.042873
49.900002 55.065926
49.775002 55.181705
49.799999 55.216732
49.849998 55.242298
49.575001 55.359913
49.799999 55.247833
49.549999 55.314476
49.299999 55.313633
49.025002 55.362499
48.825001 55.299202
48.674999 55.351967
48.849998 55.439953
48.900002 55.405212
48.849998 55.429337
49.125000 55.298504
48.875000 55.301975
48.650002 54.809723
48.575001 54.945240
48.549999 54.895710
48.474998 54.909042
48.849998 55.017735
49.049999 55.097054
49.950001 55.253906
50.799999 55.219952
51.525002 55.343601
51.424999 55.334888
51.200001 55.279049
50.474998 55.337257
49.825001 55.429218
50.000000 55.397373
50.049999 55.473095
50.025002 55.429398
50.250000 55.100632
50.025002 55.058605
50.000000 55.176365
49.650002 55.064392
49.424999 55.032150
49.275002 55.107582
49.375000 55.311073
49.450001 55.459583
49.275002 55.469017
48.974998 55.426426
48.950001 55.593254
49.000000 55.467613
48.849998 55.474884
48.750000 55.579136
48.950001 55.506794
48.924999 55.453995
48.924999 55.118584
49.025002 55.071701
49.299999 55.086967
50.174999 55.197067
51.049999 55.079502
51.674999 55.241100
51.349998 55.359039
50.474998 55.445110
49.799999 55.507935
49.625000 55.504311
49.575001 55.452187
49.950001 55.612057
50.099998 55.382381
50.150002 55.412674
50.049999 55.484261
49.825001 55.437550
49.525002 55.205540
49.375000 55.135170
49.625000 55.083813
49.450001 55.095802
49.474998 55.203518
49.250000 55.282127
49.325001 55.191067
49.275002 55.223564
48.950001 55.148319
49.174999 55.340805
49.250000 55.382332
49.125000 55.363159
49.150002 55.398640
49.625000 55.424541
50.474998 55.443439
51.250000 55.556194
52.099998 55.589012
51.775002 55.612961
51.299999 55.531479
50.724998 55.373047
50.174999 55.306904
50.125000 55.357594
50.000000 54.800827
50.250000 54.839790
50.349998 54.967190
50.174999 54.961205
50.174999 55.154762
49.950001 55.147579
49.575001 55.191826
49.525002 55.273602
49.875000 55.481716
49.424999 55.485168
49.450001 55.289776
49.424999 55.295605
49.525002 55.398815
49.700001 55.276234
49.849998 55.186764
49.525002 55.170944
49.875000 55.258354
50.500000 55.322155
51.325001 55.418194
51.775002 55.389332
52.049999 55.368263
51.424999 55.501331
50.849998 55.499485
50.575001 55.448666
50.349998 55.461048
50.450001 55.569046
50.575001 55.350986
50.500000 55.439236
50.500000 55.404694
50.450001 55.428955
50.099998 55.298225
49.950001 55.202816
49.825001 55.133183
49.650002 55.230797
49.750000 55.104122
49.575001 54.813751
49.875000 54.948181
49.700001 54.947338
49.724998 55.144634
49.724998 55.189674
49.900002 55.222549
51.224998 55.444450
52.525002 55.260056
53.500000 55.323395
53.299999 55.419098
53.224998 55.637390
52.224998 55.697746
51.674999 55.593365
51.450001 55.517178
51.250000 55.362617
50.950001 55.398243
50.875000 55.226337
50.950001 55.249302
50.974998 55.266068
50.450001 55.179344
50.200001 55.363441
50.125000 55.398849
50.125000 55.276253
49.974998 55.137299
49.950001 55.134842
49.849998 55.232002
49.875000 55.352394
49.674999 55.539227
49.625000 55.477665
49.799999 55.333782
49.775002 55.129807
50.450001 55.079887
52.200001 54.993984
54.200001 55.178684
55.075001 55.362961
54.525002 55.349022
53.650002 55.338844
52.849998 55.479855
52.224998 55.533295
51.724998 55.324898
51.250000 55.519157
51.150002 55.512497
50.924999 55.458157
50.900002 55.517456
50.625000 55.610218
50.650002 55.628433
50.525002 55.443813
50.275002 55.408035
50.000000 55.085041
49.875000 55.195660
49.650002 55.078476
49.575001 55.042431
49.700001 54.917164
49.575001 54.924702
49.525002 55.177593
49.500000 54.966335
49.474998 55.059544
49.075001 55.177052
49.075001 55.163853
49.450001 55.253181
51.049999 55.516296
53.349998 55.708324
54.974998 55.749519
55.025002 55.631149
54.250000 55.346836
52.924999 55.386734
51.799999 55.415848
51.075001 55.437096
50.625000 55.403130
50.525002 55.378334
50.349998 55.261280
50.500000 55.175850
50.125000 55.261932
49.799999 55.275288
49.700001 55.482944
49.500000 55.486069
49.500000 55.488350
49.349998 55.588970
49.075001 55.513969
48.974998 55.558193
49.000000 55.194630
48.924999 55.127213
48.849998 55.374870
48.775002 55.407192
48.500000 55.232857
48.549999 55.155109
48.599998 55.197319
49.000000 54.931248
49.950001 55.182377
52.549999 55.365662
54.150002 55.449951
54.450001 55.659904
53.375000 55.862617
52.174999 55.763168
51.250000 55.492676
50.400002 55.542648
49.924999 55.331718
49.375000 55.326221
49.025002 55.322205
48.950001 55.319275
48.799999 55.366615
48.775002 55.401165
48.275002 55.475861
48.224998 55.233501
48.299999 55.155579
48.075001 55.346096
48.174999 55.386192
48.125000 55.415451
47.974998 55.585251
47.974998 55.758648
48.025002 55.687290
47.875000 55.684689
47.525002 55.385910
48.000000 55.464725
47.700001 55.522251
47.724998 55.465271
47.974998 55.324730
48.150002 55.370594
48.599998 55.354591
49.900002 55.194473
51.849998 55.325008
52.750000 55.321320
52.299999 55.467064
51.549999 55.573437
50.700001 55.502632
49.825001 55.500435
49.200001 55.498833
48.849998 55.497665
48.849998 55.546291
48.849998 55.730217
48.674999 55.716015
48.525002 55.606689
48.075001 55.526905
47.875000 55.468670
48.000000 55.475655
47.900002 55.381786
48.049999 55.461720
48.025002 55.421093
48.049999 55.539886
47.799999 55.626583
48.400002 55.590904
48.125000 54.129967
48.200001 54.647049
48.075001 55.024429
47.875000 55.052464
48.099998 55.270844
48.049999 55.529182
47.799999 55.569290
47.875000 55.499611
48.674999 55.448753
49.500000 55.362156
51.000000 55.298954
51.674999 55.351780
51.275002 55.439819
50.750000 55.405117
49.849998 55.379787
49.299999 55.509735
49.049999 55.505623
48.974998 55.453140
48.974998 55.464310
49.000000 55.175598
48.950001 55.261749
48.875000 55.423584
48.500000 55.393265
48.500000 55.519577
48.775002 55.463322
48.799999 55.323311
48.424999 55.122162
48.375000 55.222755
48.700001 55.296169
48.575001 55.399227
48.474998 55.375492
48.474998 55.506599
48.474998 55.602287
48.599998 55.573170
48.625000 55.551918
48.650002 55.486923
48.599998 55.488972
48.674999 55.490463
49.700001 55.590515
50.974998 55.515095
52.075001 55.608498
52.125000 55.627178
52.049999 55.343941
51.150002 55.285660
50.549999 55.342079
49.900002 55.383259
49.674999 55.363834
49.424999 55.349659
49.599998 55.487747
49.525002 55.588535
49.299999 55.612614
49.250000 55.333313
49.275002 55.525299
49.049999 55.516983
48.950001 55.510910
48.950001 55.555958
48.775002 55.193001
48.950001 55.323936
48.849998 55.023663
49.099998 55.200340
48.775002 55.180851
48.474998 55.265587
48.549999 55.376904
48.650002 55.260239
48.500000 55.274052
48.549999 55.284126
48.400002 55.439919
48.825001 55.157791
49.700001 55.199280
50.875000 55.427475
51.799999 55.445580
51.825001 55.458801
51.700001 55.567410
51.025002 55.597191
50.424999 55.470497
50.000000 55.229584
50.049999 55.350628
49.525002 55.389500
49.700001 55.417862
49.875000 55.438568
49.900002 55.305241
49.799999 55.306892
49.250000 55.456539
48.974998 55.318359
49.099998 55.415421
49.025002 55.387310
49.000000 55.564709
49.325001 55.694176
49.125000 55.640236
49.099998 55.650345
49.224998 55.410332
49.049999 55.433075
48.875000 55.400188
49.375000 55.376190
50.174999 55.309196
51.575001 55.557175
52.474998 55.639206
52.849998 55.649590
51.900002 55.657173
51.174999 55.464787
50.700001 55.522297
50.400002 55.465305
50.099998 55.423714
50.200001 55.591278
50.349998 55.565140
50.174999 55.249180
50.299999 55.117538
50.075001 55.268860
49.650002 55.329815
49.375000 55.324829
49.174999 55.321194
49.125000 55.269058
49.275002 55.329960
49.150002 55.374413
49.224998 55.357380
48.974998 55.147026
49.200001 55.092468
49.750000 55.300037
50.275002 55.352573
51.599998 55.440399
52.750000 55.652935
53.325001 55.610134
52.825001 55.479935
52.549999 55.582825
51.875000 55.608444
51.375000 55.676624
50.825001 55.577942
50.500000 55.505924
50.174999 55.403881
50.150002 55.428364
50.099998 55.446228
49.849998 55.310837
49.775002 55.310978
49.299999 54.519413
49.150002 54.881802
49.200001 55.047329
48.875000 55.118656
49.150002 55.368633
48.950001 55.204723
48.924999 55.283009
48.700001 55.439102
48.750000 55.503548
48.900002 55.501106
49.299999 55.054012
50.500000 55.024578
51.875000 55.398926
52.950001 55.424755
52.650002 55.344639
52.349998 55.533562
51.500000 55.473537
50.599998 55.330757
50.150002 55.424480
49.950001 55.542358
49.625000 55.479950
49.575001 55.434402
49.599998 55.351681
49.349998 55.390266
49.150002 55.467903
49.125000 55.425613
48.674999 55.345264
48.474998 55.336105
49.000000 55.230461
48.974998 55.202835
48.450001 55.182674
48.599998 55.266918
48.724998 55.278919
48.474998 55.287685
48.525002 55.294079
48.474998 55.447182
48.075001 55.361008
48.400002 55.149677
49.650002 55.391270
50.700001 55.567596
51.375000 55.547852
51.700001 55.632401
51.025002 55.644623
50.525002 55.653553
50.125000 55.462143
49.775002 55.421406
49.325001 55.144279
49.224998 55.238892
49.075001 55.307949
49.200001 55.308872
49.150002 55.309547
48.950001 55.211075
48.650002 55.337128
48.799999 55.082771
48.750000 55.144524
48.474998 55.239071
48.500000 55.308079
48.549999 55.358448
48.450001 55.444679
48.500000 55.507622
48.375000 55.454597
48.549999 55.316940
48.549999 55.018555
48.500000 55.048176
49.200001 55.168755
49.799999 55.256760
50.724998 55.172554
51.224998 55.210049
50.924999 55.138462
50.375000 55.086216
50.000000 55.196522
49.450001 55.227543
49.424999 55.299664
49.150002 55.352299
49.424999 55.192799
49.474998 55.323784
49.525002 55.320427
49.099998 55.416931
48.775002 55.190491
48.775002 55.124184
48.400002 55.125267
48.424999 55.225025
48.375000 55.297825
48.474998 55.400436
48.450001 55.376369
48.525002 55.309330
48.500000 55.408833
48.400002 55.333023
48.549999 55.327168
48.924999 55.372372
49.625000 55.405369
50.575001 55.429447
51.099998 55.496502
51.174999 55.545441
50.974998 55.432720
50.525002 55.300976
50.125000 55.303780
49.700001 55.256351
49.799999 55.320690
49.349998 55.367645
49.224998 55.253479
49.025002 55.071198
49.025002 55.037125
48.849998 55.210167
48.825001 55.286983
48.549999 55.293564
48.525002 55.347847
48.724998 55.535904
48.575001 55.128891
48.674999 55.277138
48.724998 55.385342
48.349998 55.414829
48.450001 55.386879
48.750000 55.267521
48.424999 55.180405
48.849998 55.265263
48.650002 55.327187
49.500000 54.976555
50.174999 55.067001
50.950001 55.034058
51.150002 55.257404
50.950001 55.321461
50.750000 55.318733
50.724998 55.514652
50.500000 55.410252
50.125000 55.433014
49.875000 55.251705
49.799999 55.267822
49.525002 55.378540
49.625000 55.261429
49.400002 55.274918
49.099998 55.185802
48.900002 55.269203
48.750000 55.132153
49.025002 55.279522
48.900002 55.288128
48.950001 55.393360
48.900002 55.470165
48.674999 55.427261
48.775002 55.346466
48.900002 55.534897
48.825001 55.523991
48.750000 55.367584
48.900002 55.451351
48.950001 55.413528
49.375000 55.385929
49.825001 55.365784
50.775002 55.153164
51.150002 55.146420
51.599998 55.141502
51.349998 55.236866
51.099998 55.158031
50.799999 55.199455
50.599998 55.328640
50.275002 55.422928
49.924999 55.442265
50.224998 55.406898
49.900002 55.430565
49.775002 55.150967
49.750000 55.243778
49.625000 55.360989
49.299999 55.347580
49.275002 55.535709
49.375000 55.376137
49.125000 55.358643
49.325001 55.048992
49.299999 55.466221
49.299999 55.473866
49.549999 55.528919
49.325001 55.470146
49.299999 55.526203
49.125000 55.567116
49.674999 55.547497
50.424999 55.335270
51.599998 55.328804
52.299999 55.373569
52.500000 55.406242
52.375000 55.627998
52.299999 55.641415
51.799999 55.651203
51.625000 55.559391
51.450001 55.294464
51.275002 55.496944
51.000000 55.496284
50.700001 55.297886
50.474998 55.202564
50.275002 55.231953
50.299999 55.154449
49.825001 55.295795
49.900002 55.250523
49.599998 54.920605
49.625000 55.075642
49.674999 54.990891
49.750000 55.126945
49.849998 55.325199
49.474998 55.321461
49.500000 55.368210
49.849998 55.055973
50.950001 55.026009
51.700001 55.103096
52.674999 55.208836
53.075001 55.286011
52.674999 55.292862
52.000000 55.396812
51.625000 55.373726
51.174999 55.307396
50.775002 55.209507
50.549999 55.237022
50.625000 55.306580
50.549999 55.456310
50.450001 55.466625
50.400002 55.523636
50.325001 55.614727
49.724998 55.384331
49.775002 55.216171
49.924999 55.241890
49.674999 55.211170
49.599998 55.287720
49.275002 55.343582
49.325001 55.334877
49.349998 55.328518
49.650002 55.472324
50.174999 55.379356
51.424999 55.410465
52.250000 55.433170
52.799999 55.598175
52.549999 55.718605
51.974998 55.658066
51.250000 55.712833
50.825001 53.922081
50.549999 54.396362
50.275002 54.643551
50.150002 54.823959
50.174999 54.906155
50.275002 55.065102
49.799999 55.181107
49.525002 55.117332
49.400002 55.169746
49.299999 55.010082
49.650002 55.239910
49.325001 55.308693
49.174999 55.309418
49.150002 55.359421
48.950001 55.395908
49.049999 55.422546
49.150002 55.491463
49.250000 55.442802
48.924999 55.506248
48.875000 55.453598
49.775002 55.316212
50.575001 55.265427
51.775002 55.327312
52.474998 55.471439
52.174999 55.527145
51.250000 55.270935
50.750000 55.430290
50.400002 55.546600
49.775002 55.483047
49.924999 55.436661
50.025002 55.452290
50.150002 55.463692
49.900002 55.323578
49.599998 55.419231
49.400002 55.588009
49.224998 55.612228
49.224998 55.431992
49.224998 55.300438
49.500000 55.501308
49.325001 55.499470
49.325001 55.498127
49.200001 55.101315
49.200001 55.158058
49.125000 55.298431
48.974998 55.450363
49.325001 55.462288
50.025002 55.421513
51.049999 55.441231
52.250000 55.604061
52.000000 55.574467
51.650002 55.651821
50.950001 55.559841
50.349998 55.591671
49.900002 55.515942
49.900002 55.361717
49.724998 55.298630
50.200001 55.351547
49.950001 54.994339
49.674999 55.079979
49.625000 55.142483
49.075001 55.089149
48.924999 55.248135
49.099998 55.215733
49.275002 55.241570
49.224998 55.260418
48.974998 55.472099
49.000000 55.478153
48.950001 55.532047
48.575001 55.472431
48.799999 55.478394
48.900002 55.433266
49.700001 55.301373
50.700001 55.254589
52.075001 55.319405
52.349998 55.366707
51.974998 55.401234
51.650002 55.376949
50.674999 55.260265
50.299999 55.373028
49.875000 55.356369
49.625000 55.146290
49.500000 55.240364
49.700001 55.407986
50.025002 55.431358
50.000000 55.547375
49.724998 55.483612
49.424999 55.189682
49.200001 55.222553
49.075001 55.246544
48.775002 55.066135
49.200001 55.181862
48.950001 55.216843
49.150002 55.242378
49.025002 55.261009
49.049999 55.423050
48.750000 55.491833
48.799999 55.294640
48.950001 55.299152
49.599998 55.351925
50.349998 55.390442
51.650002 55.418556
52.349998 55.538033
52.349998 55.724194
51.825001 55.711620
50.750000 55.603485
50.500000 55.326645
50.025002 55.273037
50.150002 55.332870
50.250000 55.376534
50.224998 55.408409
50.174999 55.382191
49.974998 55.264095
49.549999 55.227383
49.025002 55.250069
48.849998 55.316109
48.849998 55.364304
49.150002 55.399475
49.200001 55.425152
49.299999 55.493366
49.250000 55.345238
49.049999 55.435040
48.875000 55.203712
49.125000 54.935917
48.625000 54.987862
48.599998 55.124733
49.049999 55.224632
50.099998 55.347019
51.575001 55.436344
51.900002 55.204662
51.924999 55.381924
51.299999 55.412338
50.525002 55.385056
50.200001 55.414623
49.924999 55.436203
49.849998 55.451954
50.400002 55.562412
49.799999 55.494587
50.099998 55.296646
49.849998 55.300617
49.474998 55.303516
49.250000 55.256153
49.075001 55.320549
49.049999 55.367546
49.224998 55.352364
48.924999 55.143368
48.974998 53.704372
49.025002 54.237473
49.525002 54.577068
48.900002 54.775440
48.900002 54.969707
49.025002 55.210438
49.474998 55.287186
50.650002 55.392666
51.500000 55.172787
52.099998 55.358658
51.924999 55.345879
51.599998 55.435509
50.575001 55.352489
50.224998 55.390858
49.849998 55.220943
49.799999 54.948494
49.799999 55.046524
49.924999 55.019115
50.099998 55.197021
49.900002 55.277390
49.500000 55.336044
49.150002 55.378853
49.049999 55.311138
49.174999 55.360676
49.474998 55.198917
49.549999 55.377724
49.049999 55.409275
48.950001 55.283859
48.900002 55.192329
48.900002 55.125526
48.974998 55.225208
49.200001 55.100040
49.799999 55.058174
50.875000 55.126575
51.974998 55.176495
52.625000 55.361362
52.200001 55.446815
51.599998 55.459694
51.250000 55.469101
50.400002 55.624401
50.200001 55.440868
50.150002 55.554314
50.125000 55.389721
49.974998 55.418030
49.799999 55.389214
49.750000 55.368183
49.250000 55.303349
49.349998 55.157074
48.900002 55.248238
48.950001 55.166328
49.099998 55.106556
48.875000 55.260838
48.750000 55.422920
48.599998 55.442261
48.474998 55.406898
49.000000 55.579002
48.875000 55.358261
48.875000 55.345589
49.275002 55.435299
49.625000 55.401814
50.450001 55.377373
51.174999 55.359543
51.900002 55.346523
51.599998 55.435978
51.375000 55.451794
51.200001 55.512810
50.875000 55.458385
50.200001 55.418663
50.049999 55.290714
49.950001 55.395248
49.674999 55.372585
49.724998 55.356045
49.525002 55.343967
49.325001 55.483593
49.125000 55.486538
49.075001 55.538166
49.400002 55.476894
49.450001 55.481651
49.224998 55.336689
49.049999 55.131927
49.075001 55.081448
49.200001 55.193031
49.250000 55.076565
49.125000 55.090515
48.900002 55.150181
48.825001 54.599976
49.099998 54.940594
49.525002 55.090237
50.525002 55.001534
51.250000 55.283150
51.650002 55.340252
51.525002 55.381927
51.049999 55.461819
50.674999 55.668568
50.275002 55.671021
50.275002 55.375938
50.299999 55.358490
50.174999 55.246799
50.075001 55.313721
50.125000 55.362560
49.775002 55.348724
49.400002 55.338631
49.250000 55.430225
49.375000 55.497074
49.400002 55.248985
49.349998 55.265839
49.575001 55.327614
49.400002 55.323219
49.125000 55.369495
49.224998 55.452747
49.049999 55.661945
49.250000 55.468266
49.375000 55.326920
49.650002 55.223763
50.724998 55.197945
51.599998 55.426502
51.799999 55.444870
51.650002 55.408806
51.250000 55.382481
50.650002 55.264309
49.950001 55.178059
50.299999 55.263546
49.974998 55.276463
50.150002 55.483807
49.950001 55.486694
49.775002 55.488804
49.775002 55.539825
49.625000 55.329662
49.599998 55.324718
49.375000 55.222153
49.000000 55.246254
49.125000 55.214355
49.375000 55.290047
49.125000 55.345284
49.099998 55.336117
49.150002 55.329422
49.224998 55.225590
49.025002 55.347717
49.299999 55.387375
49.849998 55.317360
50.974998 55.513653
51.900002 55.508476
52.275002 55.504707
52.275002 55.402992
51.750000 55.625629
50.875000 55.590206
50.625000 55.415913
50.174999 55.387665
50.125000 55.317570
50.099998 55.365372
50.549999 55.400257
50.099998 55.277283
50.000000 55.088573
49.775002 55.049797
49.424999 55.219418
49.400002 55.293732
49.125000 55.298492
49.275002 55.351444
49.375000 55.588017
49.724998 55.364834
49.525002 55.498829
49.200001 55.646099
49.224998 55.605145
49.075001 55.426823
49.450001 55.296665
49.825001 55.251152
50.775002 55.316895
52.099998 55.414356
52.900002 55.188614
52.974998 55.221779
52.474998 55.394409
51.950001 55.520412
51.700001 55.562893
51.375000 55.148582
51.000000 55.242039
50.575001 55.260757
50.549999 55.323910
50.549999 55.419472
50.500000 55.390266
50.275002 55.418423
50.025002 55.389500
49.875000 55.368389
50.000000 55.303501
49.950001 55.355106
49.799999 55.194843
49.750000 55.226322
49.375000 55.249294
49.325001 55.167099
49.375000 55.305027
49.700001 55.356216
49.400002 55.344097
49.275002 55.384731
49.599998 55.364906
50.900002 55.399914
52.424999 55.524429
53.224998 55.565826
53.250000 55.596035
52.625000 55.519127
52.500000 55.561954
51.875000 55.791126
51.349998 55.661514
51.250000 55.418480
50.849998 55.488495
50.750000 55.440639
50.750000 55.405716
50.150002 55.528660
50.174999 55.519436
50.224998 55.215820
50.000000 55.291111
49.950001 55.247101
49.549999 55.313938
49.424999 55.412197
49.474998 55.533390
49.325001 55.522888
49.625000 55.366783
49.400002 55.351810
49.099998 54.994526
49.075001 55.129601
49.750000 55.030262
50.875000 55.205158
52.575001 55.283321
52.924999 55.290901
53.349998 55.444859
52.900002 55.260357
52.000000 55.373093
51.174999 55.603809
50.900002 55.475323
50.599998 55.480503
50.500000 55.533764
50.500000 55.473682
50.375000 55.479309
50.174999 55.334976
50.025002 55.031715
49.724998 55.057789
49.625000 55.175774
49.250000 55.212395
49.250000 55.338089
49.424999 55.330864
49.325001 55.226639
49.299999 55.348484
49.375000 55.387936
49.224998 55.367249
48.924999 55.401630
49.025002 55.327759
49.400002 55.372807
50.525002 55.455170
52.075001 55.515274
53.250000 55.559143
53.525002 55.195332
53.250000 55.226673
52.825001 55.299030
51.799999 55.351837
51.250000 55.489338
50.700001 55.441254
50.724998 55.406162
50.700001 55.083675
50.450001 55.244144
50.299999 55.311783
50.299999 55.311665
50.224998 55.361061
49.849998 55.397110
49.400002 55.423420
49.349998 55.492100
49.474998 55.443272
49.424999 55.209717
49.299999 55.138222
49.250000 55.086037
49.099998 55.097424
49.200001 55.006783
49.200001 54.940624
49.000000 55.040783
48.974998 55.113880
49.849998 55.266190
51.099998 55.377346
52.750000 55.409000
53.549999 55.481579
53.299999 55.534546
52.849998 55.523731
52.099998 55.515839
51.424999 55.609032
51.200001 55.231735
50.849998 55.302723
50.575001 55.206097
50.474998 55.135578
50.049999 55.133587
50.025002 55.231094
49.700001 55.302254
49.849998 55.106800
49.775002 55.162060
49.549999 55.103436
49.349998 55.258564
49.500000 55.223347
49.099998 55.247124
49.299999 55.462395
48.950001 55.421593
49.049999 55.441288
49.275002 55.158791
49.349998 55.397919
49.250000 55.424015
49.575001 55.294621
50.299999 55.200184
51.500000 55.230217
52.500000 55.301613
52.950001 55.106331
52.674999 55.161716
51.500000 55.301105
51.049999 55.303871
50.474998 55.404854
50.224998 55.429073
50.025002 55.397266
50.099998 55.571972
49.900002 55.551048
49.724998 55.238892
49.599998 55.357430
49.799999 55.493423
49.500000 55.493713
49.125000 55.345490
48.875000 55.336269
48.674999 55.230579
49.150002 54.906048
48.950001 54.867107
49.400002 54.888168
48.900002 55.002495
48.825001 54.986977
48.750000 55.124088
49.299999 55.224163
50.849998 55.247715
51.849998 55.512299
52.825001 55.507496
53.025002 55.503986
52.349998 55.550900
52.075001 55.585148
51.125000 55.461700
50.500000 55.322124
50.400002 55.319214
50.125000 55.020214
50.500000 55.148346
50.150002 55.241867
49.700001 55.161678
49.650002 55.202118
49.500000 55.132671
49.174999 55.329380
49.174999 55.275032
49.224998 55.235363
48.950001 55.057980
48.674999 55.076950
48.950001 55.189754
48.849998 55.321560
48.799999 55.318806
48.700001 55.415752
48.700001 55.288593
48.924999 54.898911
49.599998 54.911373
51.025002 55.068909
52.200001 55.183887
53.150002 55.317280
53.250000 55.315681
52.750000 55.314514
51.849998 55.462097
51.075001 55.421371
50.950001 55.045300
50.549999 55.166653
50.200001 53.671890
50.000000 54.164276
50.000000 54.424690
49.875000 54.565273
49.849998 54.865788
49.500000 54.689281
49.450001 54.758381
49.224998 54.808819
49.000000 54.994057
48.950001 55.079773
49.049999 55.142334
48.900002 55.188000
48.950001 55.122364
48.825001 55.272381
48.974998 55.134472
48.950001 55.182259
48.700001 55.266617
48.900002 55.427139
50.049999 55.445335
51.375000 55.557579
52.875000 55.491058
53.674999 55.244598
53.224998 55.262630
52.400002 55.374752
52.000000 55.357632
51.674999 55.592525
51.049999 55.566044
50.650002 55.497242
50.424999 55.447021
50.825001 55.311413
50.474998 55.162960
50.400002 55.203053
50.000000 55.232311
49.799999 55.303143
49.700001 55.354836
49.424999 55.392574
49.250000 55.519073
49.174999 55.265038
49.224998 55.376507
49.299999 55.259949
49.424999 55.174885
49.200001 55.112789
48.974998 55.215912
48.950001 55.093262
49.299999 55.053223
50.599998 55.122959
52.049999 54.876984
53.174999 55.093288
53.599998 55.251160
53.200001 55.316902
52.375000 55.364880
51.775002 55.399895
51.099998 55.425457
50.700001 55.147236
50.750000 55.438969
50.700001 55.404499
50.525002 54.587666
50.224998 54.684212
49.625000 54.903118
49.674999 55.062885
49.174999 55.179489
48.924999 55.116154
49.125000 54.872013
49.250000 54.891743
49.250000 55.104069
49.250000 55.160065
49.025002 55.200939
49.000000 55.280243
48.775002 55.338131
48.775002 55.182461
48.924999 55.316242
50.025002 55.215961
51.900002 55.340694
53.525002 55.332771
53.950001 55.425945
53.474998 55.394985
52.825001 55.421871
52.150002 55.540459
51.375000 55.231167
51.075001 55.252831
50.375000 55.169682
50.325001 55.306915
50.224998 55.357597
50.025002 55.345104
49.799999 55.385464
49.525002 55.118050
49.349998 55.219753
49.049999 55.392937
49.049999 55.321415
49.025002 55.417656
48.424999 55.289986
48.625000 55.196800
48.674999 55.128788
48.724998 55.227589
48.525002 55.002819
48.775002 55.086174
48.575001 55.147007
48.500000 55.092449
48.849998 55.250549
50.174999 55.217499
52.200001 55.292336
53.424999 55.149033
53.674999 55.242371
53.250000 55.310486
52.500000 55.459160
51.349998 55.518188
50.474998 55.561272
50.025002 55.394798
50.025002 55.372253
49.974998 55.306324
49.799999 54.961330
49.549999 54.511623
49.400002 54.727676
49.250000 54.885361
48.974998 54.901489
48.775002 55.111176
48.724998 55.214729
48.924999 54.845001
49.049999 55.168903
48.474998 55.256870
48.549999 55.321068
48.724998 55.417400
48.325001 55.388752
48.174999 55.367840
48.500000 55.253624
48.325001 55.170258
48.599998 54.862022
49.599998 55.032890
50.849998 55.108120
51.924999 55.261978
52.599998 55.275322
52.375000 55.285057
51.650002 55.440601
51.150002 55.158295
50.549999 55.199642
49.974998 55.427742
49.900002 55.445774
49.799999 55.458942
50.000000 55.567509
49.700001 55.696220
49.375000 55.592251
48.950001 55.417404
49.150002 55.091881
48.724998 55.101692
48.700001 55.207813
48.400002 53.800896
48.825001 54.208954
48.775002 54.506775
48.775002 54.625183
48.525002 54.563160
48.599998 54.814770
48.450001 54.948925
48.525002 55.096310
48.875000 55.302841
49.900002 55.305138
51.500000 55.455257
52.375000 55.515347
52.299999 55.559189
51.924999 55.195362
51.125000 55.226700
50.075001 55.200092
50.000000 55.279625
49.875000 55.337677
49.924999 55.281082
49.400002 55.289265
49.275002 55.196274
49.450001 55.326317
49.325001 55.470715
49.099998 55.427666
49.000000 55.445721
48.500000 55.458900
48.549999 55.468517
48.525002 55.525017
48.400002 55.467293
48.424999 55.128296
48.650002 55.078789
48.724998 55.042664
48.474998 55.065773
48.450001 55.181599
48.349998 55.068214
48.825001 55.034946
50.525002 54.911697
52.150002 55.168106
52.900002 55.355244
52.849998 55.392864
52.099998 55.469803
51.799999 55.624912
50.750000 55.490726
50.224998 55.491749
50.099998 55.591454
49.924999 55.317867
49.950001 55.365589
49.625000 55.251980
49.549999 55.169060
49.099998 55.108547
48.799999 55.212814
48.875000 55.288918
48.500000 54.998104
48.500000 55.082733
48.500000 55.045540
48.700001 55.216309
48.599998 55.192509
48.424999 55.224617
48.200001 55.445961
48.224998 55.360119
48.025002 55.396423
48.000000 55.126045
48.375000 55.176113
49.000000 55.311607
50.275002 55.212578
51.625000 55.338223
52.250000 55.281483
52.674999 55.339035
52.025002 55.183121
51.875000 55.217766
51.224998 55.144089
50.700001 55.090321
50.375000 55.199516
50.025002 55.279205
49.799999 55.287895
49.575001 55.343712
49.650002 55.483410
49.375000 55.189529
49.174999 55.321400
48.674999 55.318687
48.525002 55.267231
48.674999 55.180191
48.700001 55.215626
48.450001 55.192005
48.650002 55.026333
48.674999 55.103336
48.625000 55.159534
48.400002 55.200550
48.025002 55.131527
48.125000 55.279064
48.375000 55.238308
48.474998 55.258041
48.700001 55.321926
49.075001 55.269592
50.724998 54.885044
52.174999 55.148647
52.700001 55.440002
52.849998 55.504208
52.075001 55.452110
51.200001 55.513042
50.724998 55.062729
50.599998 55.179375
50.150002 55.264515
49.875000 55.277164
49.599998 55.286404
49.700001 55.194183
49.650002 55.324795
49.325001 55.370647
48.974998 55.354626
48.875000 55.194496
48.724998 55.275551
48.750000 55.334705
48.650002 55.427357
48.575001 55.396015
48.825001 55.373142
48.549999 55.257488
48.875000 54.975170
48.724998 55.016518
48.650002 55.145641
48.450001 55.041973
48.650002 55.015789
49.525002 55.095634
50.325001 55.054955
51.325001 55.272659
51.650002 55.332596
51.575001 55.128941
51.150002 55.376133
50.799999 55.309151
50.099998 55.359230
49.700001 55.445251
49.799999 55.409081
49.875000 55.432159
49.950001 55.102642
49.875000 55.060074
49.525002 55.028999
49.224998 55.154762
49.125000 55.246544
48.674999 55.363014
48.775002 55.349052
48.900002 55.239910
48.924999 55.358173
48.950001 55.048645
48.924999 54.971180
49.174999 55.112560
49.025002 55.116787
48.750000 55.218834
49.525002 55.342785
50.400002 55.334297
52.250000 55.229137
53.025002 55.251350
53.299999 55.267559
52.500000 55.229908
51.700001 55.301388
51.000000 55.353558
50.424999 55.243202
50.549999 55.261608
50.450001 55.176090
50.275002 55.113674
50.224998 55.117596
49.775002 55.120464
49.299999 55.221516
49.424999 55.295265
49.275002 55.349087
49.049999 55.437851
49.125000 55.255238
49.025002 55.319878
48.924999 55.317577
48.724998 55.315895
48.775002 55.265190
48.849998 55.327137
48.575001 55.322876
49.474998 55.319763
50.799999 55.317493
52.549999 55.018959
53.924999 55.246387
53.724998 55.313419
53.349998 55.362343
52.650002 55.546486
51.650002 55.680882
51.025002 55.630535
50.450001 55.643265
50.450001 55.553596
50.299999 55.488148
50.025002 55.341431
50.075001 55.333305
49.775002 55.228416
49.549999 55.300301
49.174999 55.352764
49.275002 55.341576
48.724998 55.036537
48.650002 55.209736
48.700001 55.336151
49.025002 55.329453
48.775002 55.324562
48.974998 55.370472
48.825001 55.403984
48.575001 55.428436
48.500000 55.347328
49.200001 55.238647
50.799999 55.307770
52.450001 55.308739
53.224998 55.309448
53.174999 55.359444
52.525002 55.544369
51.750000 55.530895
50.775002 55.075752
50.650002 55.139404
50.150002 55.086903
49.875000 55.246498
49.825001 55.214535
49.650002 55.240700
49.525002 55.457699
49.174999 55.368683
49.025002 55.402676
48.825001 55.328526
48.750000 55.323887
48.700001 55.271023
48.525002 55.182957
48.599998 55.217644
48.174999 54.748173
48.224998 54.949802
48.224998 54.800079
48.424999 54.938202
48.400002 55.039013
48.375000 55.211544
48.424999 55.337471
48.775002 55.280930
49.650002 55.289150
50.849998 55.344627
51.924999 55.385117
51.950001 55.414669
51.700001 55.535194
51.000000 55.474728
50.250000 55.430592
50.025002 55.299423
49.900002 55.203690
49.625000 55.133820
49.450001 55.033340
49.500000 55.108456
49.500000 55.163265
49.099998 55.203278
48.875000 55.133514
48.575001 55.231037
48.400002 55.203259
48.525002 55.084023
48.400002 55.194923
48.200001 55.176895
48.150002 55.262699
48.349998 55.374802
48.325001 55.357666
48.250000 55.394630
48.275002 55.273174
48.200001 55.184528
48.375000 54.921917
48.349998 55.076603
48.674999 55.140026
49.625000 55.136837
50.450001 55.183979
50.974998 55.119434
50.799999 55.270241
50.474998 55.231869
50.099998 55.203861
49.775002 55.282379
49.575001 55.438644
49.474998 55.453739
49.549999 55.514229
49.700001 54.865669
49.450001 54.986073
49.125000 54.974991
48.700001 54.768986
48.200001 54.816551
48.900002 54.999706
48.700001 54.935463
48.825001 55.037018
49.000000 55.111130
48.724998 55.066265
48.375000 55.280914
48.549999 55.239658
48.375000 55.209553
48.224998 55.286537
48.250000 55.243759
48.450001 55.311504
48.974998 55.261978
50.250000 55.275322
50.700001 55.334538
50.775002 54.932438
50.724998 55.034809
50.299999 55.010559
49.825001 55.141300
49.700001 55.038807
49.674999 54.963993
49.599998 54.958878
49.875000 55.004620
49.849998 55.235920
49.275002 55.206825
49.125000 55.235062
48.799999 55.305149
48.750000 55.504745
48.750000 55.501980
48.525002 55.549438
48.924999 55.633556
48.799999 55.249638
48.724998 55.068394
49.000000 55.035072
48.599998 55.010750
48.400002 55.141441
48.500000 55.038906
49.075001 55.310429
50.325001 55.310680
51.375000 55.211903
52.025002 55.387207
52.049999 55.416191
51.900002 55.437347
51.599998 55.650707
50.799999 55.509552
50.525002 55.505489
50.474998 55.403564
50.500000 55.081776
50.450001 55.094318
50.049999 55.053989
49.724998 55.024563
49.349998 55.201000
49.200001 55.280289
49.125000 55.239201
49.325001 54.664944
49.049999 54.740623
49.299999 54.795849
49.125000 54.984592
48.974998 54.924431
48.724998 54.880524
49.000000 55.046394
48.900002 55.068493
48.950001 55.134109
49.174999 54.934597
50.099998 54.937420
51.250000 55.137398
52.125000 55.085438
52.599998 55.146469
52.424999 55.191017
51.799999 55.273006
51.474998 55.332848
51.125000 54.931206
50.775002 55.033901
50.500000 55.009899
50.250000 55.140820
50.275002 55.137409
50.250000 55.184406
49.875000 55.070267
49.674999 54.986954
49.525002 54.827198
49.375000 55.056950
49.224998 55.274120
48.900002 55.284180
49.025002 55.192562
49.349998 55.125698
48.924999 55.076900
49.049999 54.793888
49.150002 54.785248
48.875000 54.877903
48.549999 54.995003
48.750000 55.179428
49.674999 55.264549
51.049999 55.227711
52.174999 55.250309
52.549999 55.316280
52.349998 55.314949
52.025002 55.363461
51.700001 55.497822
51.099998 55.348484
50.500000 55.338455
50.375000 55.232170
50.299999 55.055641
50.424999 55.075245
50.599998 55.188511
50.099998 55.073261
49.974998 55.038628
49.700001 55.112305
49.450001 55.265038
49.349998 55.376507
49.250000 55.309429
49.049999 55.309948
49.099998 55.161892
49.375000 55.251751
49.549999 55.317329
49.075001 55.266239
49.125000 55.476349
48.849998 55.530727
49.075001 55.372505
49.000000 55.257027
49.525002 55.222225
50.799999 55.295784
51.799999 55.349468
52.424999 55.339176
52.525002 55.331654
51.650002 54.831383
51.200001 55.109489
50.724998 55.114544
50.325001 54.771881
50.525002 54.967106
50.549999 55.109589
50.349998 55.213573
50.174999 55.338951
50.125000 55.331490
49.849998 55.375530
49.775002 55.209759
49.650002 55.138248
49.174999 55.086056
49.375000 55.196404
49.174999 55.276936
49.099998 55.286236
49.075001 55.293022
49.099998 55.100056
48.924999 55.256100
49.500000 54.974155
48.849998 55.065254
48.900002 55.725491
49.474998 55.663090
50.724998 55.617550
52.200001 55.683270
52.650002 55.830185
52.224998 55.788975
51.724998 55.659943
51.349998 55.565769
50.825001 55.398075
50.525002 55.424133
50.075001 55.443142
50.150002 55.407543
50.549999 55.381557
50.424999 55.263638
50.424999 55.029129
50.224998 55.105373
49.700001 55.161018
49.275002 55.251114
49.349998 55.316868
49.275002 55.364857
49.299999 55.449364
49.049999 55.609993
48.974998 55.578789
49.174999 55.358105
49.174999 55.246513
49.075001 55.165070
49.000000 55.254070
48.599998 55.121105
49.000000 55.123020
49.375000 55.173904
50.625000 54.815205
52.125000 55.097679
52.724998 55.204884
52.349998 55.233646
51.525002 55.452560
50.875000 55.463890
50.650002 55.472168
50.474998 55.527679
50.349998 55.370277
50.224998 55.354355
50.174999 55.243782
50.125000 55.163074
49.799999 55.104179
49.750000 55.209625
49.525002 55.088673
49.075001 55.148827
49.000000 54.796906
48.825001 54.836929
48.900002 55.064056
48.825001 55.180347
48.775002 54.869385
48.750000 55.038269
49.075001 55.161522
48.875000 55.251484
48.674999 55.218178
48.450001 55.243351
48.799999 55.261719
49.424999 55.176174
50.674999 55.113735
51.599998 55.117641
52.099998 55.021538
51.950001 55.149319
51.500000 54.995174
51.125000 55.080593
50.750000 55.241894
49.974998 55.409096
49.924999 55.432167
50.025002 55.399529
50.049999 55.425190
50.150002 55.344959
50.000000 55.335884
49.525002 55.477695
48.924999 55.333797
49.075001 55.278255
48.950001 55.089283
49.174999 55.050316
49.174999 55.021881
49.299999 55.149563
49.049999 54.896393
49.000000 54.909542
48.750000 55.018097
48.750000 55.196285
48.799999 55.326328
49.375000 55.322281
49.825001 55.220375
50.775002 55.294434
51.799999 55.348484
52.150002 55.387936
52.075001 55.515686
51.724998 55.707878
51.125000 55.600750
50.575001 55.423607
50.325001 54.007870
50.275002 54.607410
49.974998 54.649147
50.000000 54.877525
50.075001 54.895767
49.924999 55.008038
49.799999 54.991028
49.450001 55.176525
49.349998 55.163467
49.224998 55.203423
49.075001 55.282055
49.125000 55.339455
49.125000 55.381340
49.299999 55.461388
49.250000 55.420853
48.825001 55.391270
48.724998 55.270721
48.700001 55.182739
48.674999 54.871128
49.250000 55.039543
50.549999 54.964539
52.025002 54.959274
52.700001 55.054390
53.099998 55.123810
52.900002 55.322914
52.200001 55.319790
51.775002 55.366993
51.125000 55.401440
50.849998 55.327618
50.525002 55.372704
50.599998 55.455090
50.375000 55.416260
50.424999 55.387917
50.125000 55.218800
50.075001 54.946930
49.775002 54.946423
49.724998 55.094490
49.349998 55.004642
49.049999 54.988544
49.299999 55.075752
49.325001 55.040447
49.325001 55.212589
49.349998 55.288754
49.275002 55.245380
49.174999 55.659039
49.099998 55.515629
49.075001 55.509918
49.474998 55.406799
50.125000 55.282055
51.450001 55.388927
53.174999 55.071098
53.825001 55.136009
53.575001 55.133900
52.924999 55.231323
51.950001 55.302422
51.575001 55.403797
51.125000 55.378826
51.025002 55.261635
50.900002 55.374027
51.099998 55.307613
50.849998 55.209667
50.500000 55.286621
50.400002 55.144859
50.224998 55.239319
50.049999 55.209301
49.750000 55.137913
49.525002 54.937374
49.375000 54.939445
49.625000 54.940960
49.825001 54.942066
49.900002 55.091316
49.525002 55.150764
49.549999 55.194145
49.474998 55.225811
49.349998 55.347881
49.724998 55.387493
50.950001 55.317444
52.474998 55.315800
53.849998 55.364079
53.775002 55.597229
53.174999 55.569481
52.150002 55.648182
51.150002 55.359276
50.575001 55.346329
50.424999 55.237923
50.400002 55.158802
50.349998 55.101055
50.650002 55.207348
50.424999 55.087013
50.125000 55.048664
49.525002 55.020672
49.275002 55.000244
49.224998 55.183250
49.224998 55.168381
49.325001 55.157528
49.150002 55.248566
49.200001 55.216045
48.950001 55.291275
48.825001 55.049301
49.000000 55.120094
48.825001 55.171761
48.700001 55.011555
49.000000 54.993595
50.000000 54.980480
51.549999 55.119347
53.174999 55.220699
53.950001 55.245190
53.674999 55.263062
52.650002 55.276108
51.900002 55.434067
51.700001 55.351433
50.924999 55.340611
50.400002 55.382183
50.349998 55.313572
50.174999 55.115055
50.174999 55.267044
50.099998 55.279015
49.724998 55.337234
49.450001 55.231281
49.025002 55.153957
48.775002 55.097519
49.075001 55.204769
49.049999 55.085125
48.924999 55.047283
49.000000 55.118626
49.125000 55.071735
48.750000 55.185947
48.924999 55.170345
48.775002 55.208443
48.900002 55.285725
48.549999 55.045254
49.525002 55.117142
51.299999 55.268570
52.775002 55.280128
53.450001 55.387520
52.974998 55.366947
52.125000 55.351925
51.325001 55.291489
50.775002 55.346333
50.250000 55.188446
49.950001 55.221653
49.924999 55.245888
50.099998 55.362534
50.299999 54.903393
50.125000 55.063087
49.500000 53.645782
49.125000 54.145229
48.924999 54.410782
48.974998 54.703556
49.125000 54.966721
49.075001 55.059830
49.049999 55.127781
49.200001 55.078415
48.724998 55.042389
48.500000 55.016098
48.750000 55.145340
48.575001 55.041756
48.650002 55.015633
49.250000 55.095524
50.650002 55.054871
52.174999 55.272598
52.825001 55.332554
52.424999 55.128910
51.625000 55.376110
50.450001 55.309135
49.875000 55.359219
49.700001 55.445244
49.849998 55.557510
49.700001 55.491009
49.775002 55.343517
49.849998 55.235870
49.349998 55.157310
49.250000 55.248405
48.775002 55.314888
48.474998 55.462372
48.525002 55.421574
48.775002 55.292847
48.650002 55.396801
48.525002 55.076843
48.325001 55.140198
48.375000 55.235916
48.375000 55.404739
48.224998 55.428989
48.299999 55.545647
48.200001 55.482353
49.200001 55.485634
50.575001 55.339592
51.724998 55.331959
52.575001 55.276913
52.700001 55.335697
51.674999 55.477558
50.625000 55.383179
50.325001 55.363773
50.049999 55.448570
49.724998 55.312542
49.599998 55.262737
49.450001 55.275875
49.174999 55.334938
49.150002 55.279087
48.799999 55.337284
48.650002 55.429241
48.625000 55.001556
48.349998 55.134727
48.724998 55.083488
48.575001 55.046085
48.424999 55.018795
48.500000 55.147308
48.174999 55.043194
48.200001 55.016682
48.000000 55.096291
48.049999 54.758553
47.974998 55.006855
48.375000 55.039639
49.150002 55.113041
50.650002 55.216095
51.900002 55.241833
52.375000 55.310093
52.000000 55.409393
51.500000 55.481861
50.450001 55.485275
49.799999 55.339336
49.650002 55.232819
49.325001 55.155079
49.400002 55.246777
49.500000 55.115784
49.224998 55.069664
49.125000 54.838081
48.849998 55.064896
48.750000 55.230434
48.349998 55.202816
48.575001 55.232136
48.700001 55.303017
48.974998 55.354748
48.750000 55.392506
48.700001 55.469547
48.450001 55.575241
48.474998 55.503952
48.250000 55.352959
48.150002 55.242767
48.474998 54.964413
49.474998 55.107628
51.075001 55.014229
51.900002 54.896584
52.599998 55.008636
51.924999 55.090424
51.075001 55.249069
50.174999 55.265900
49.775002 55.278175
49.424999 55.336620
49.525002 55.527710
49.674999 55.518742
49.575001 55.413239
49.424999 55.385715
49.224998 55.068752
49.125000 55.035336
48.924999 55.010941
48.625000 54.993141
48.775002 55.128586
48.575001 54.930569
48.799999 54.934479
49.000000 55.036297
48.825001 55.011642
48.650002 55.142094
48.474998 55.237301
48.650002 55.257305
48.525002 55.469826
48.625000 55.377529
49.400002 55.409134
51.275002 55.531155
52.875000 55.570732
53.724998 55.599617
53.325001 55.521744
52.525002 55.464905
51.474998 55.373943
51.150002 55.208595
50.750000 55.087917
50.474998 55.098797
50.400002 55.156227
50.700001 55.297092
50.549999 55.350422
50.325001 55.290390
50.275002 55.296051
49.799999 55.349663
49.500000 55.289837
49.575001 55.345131
49.325001 55.434963
49.224998 55.401569
49.275002 55.426678
49.599998 55.296562
49.275002 55.300556
49.049999 54.957123
49.174999 55.102295
49.075001 55.208256
49.674999 55.236103
51.525002 55.256435
53.200001 55.172318
54.099998 55.308830
53.599998 55.358994
53.049999 55.346119
51.900002 55.534645
51.224998 55.424850
50.575001 55.443665
50.200001 55.506878
50.424999 55.454056
50.650002 55.464981
50.575001 55.225567
50.400002 54.852913
50.025002 54.877808
49.875000 55.044411
49.450001 54.968090
49.500000 54.961864
49.575001 54.957321
49.349998 54.954010
49.424999 55.100029
49.375000 55.107643
49.424999 55.113197
49.275002 55.216206
49.724998 55.192429
51.549999 55.274040
53.150002 55.432560
54.224998 55.300858
53.825001 55.402653
52.724998 55.081112
51.700001 55.242275
50.924999 55.161976
50.525002 55.251812
50.424999 55.317375
50.599998 55.167313
50.799999 55.206226
50.400002 55.135666
50.049999 55.282089
49.799999 55.339478
49.325001 55.331875
49.224998 55.177902
49.200001 55.164474
48.974998 55.253635
48.775002 55.368187
48.799999 55.352833
48.924999 55.143707
48.875000 54.694210
48.650002 54.761978
49.799999 54.811440
51.799999 54.995975
53.275002 55.130653
54.025002 55.179470
53.575001 55.215099
52.674999 55.142143
51.474998 55.336296
51.025002 55.082161
50.349998 55.144077
49.900002 55.238747
49.875000 54.862534
49.549999 55.033264
49.450001 55.207348
49.349998 54.839611
49.150002 55.066013
48.575001 55.033337
48.549999 55.009487
48.174999 54.992085
48.400002 55.127815
48.200001 55.226879
48.299999 55.249699
48.275002 55.266357
48.200001 55.377468
48.349998 55.458565
48.599998 55.369316
49.500000 55.353653
51.299999 55.391708
52.200001 55.419479
51.875000 55.439747
51.825001 55.157665
50.875000 55.100227
50.250000 55.206745
49.650002 55.136047
49.500000 55.084450
49.125000 55.096268
48.974998 55.203857
48.950001 55.084461
48.500000 55.046799
48.375000 55.118267
48.075001 55.071472
47.900002 55.235237
48.150002 55.255802
48.099998 55.270813
48.150002 55.331238
48.224998 55.474308
47.900002 55.232365
47.974998 55.352665
47.924999 55.341503
47.825001 55.333363
48.575001 55.228455
49.400002 55.151894
50.424999 55.046535
50.875000 55.167553
50.950001 55.057968
50.700001 55.126427
50.150002 55.176388
49.599998 55.113892
49.125000 55.266197
49.150002 54.833088
49.000000 54.962292
48.799999 55.106075
48.750000 54.914135
48.474998 55.070927
48.349998 55.234837
48.375000 55.255505
48.025002 55.369549
47.950001 55.254868
48.224998 55.270130
48.025002 55.231785
48.025002 55.302757
48.099998 55.156643
48.299999 55.198441
48.049999 55.228947
48.000000 55.350166
48.000000 55.438641
48.799999 55.404259
49.924999 55.230717
50.900002 55.005104
51.125000 55.087841
51.000000 55.197704
50.750000 55.178928
50.299999 55.115746
50.200001 55.218071
49.700001 55.144310
49.674999 55.090485
49.099998 55.051193
49.099998 55.170956
49.174999 55.060455
49.200001 55.029274
48.974998 55.105480
48.375000 55.260056
48.250000 55.026520
48.299999 55.103470
48.299999 54.813278
48.424999 54.997314
48.525002 55.131634
48.275002 55.229664
48.349998 55.350693
48.224998 55.241112
48.299999 55.260082
48.099998 55.174980
48.125000 55.112862
48.474998 55.067528
49.349998 55.182880
50.349998 55.069149
50.900002 55.134583
50.875000 55.182339
50.750000 55.118233
50.549999 55.219887
50.500000 54.898247
50.450001 55.009850
50.299999 55.140785
49.775002 55.335308
49.424999 55.378319
49.575001 55.310749
49.125000 55.310909
48.974998 55.311035
49.075001 55.212162
49.049999 55.140003
48.775002 55.087337
48.875000 55.197334
48.775002 55.228138
48.500000 55.250618
48.549999 55.267029
48.599998 55.377964
48.750000 55.112572
48.500000 55.116798
48.750000 55.169357
48.400002 55.257198
48.700001 55.321308
48.849998 55.368099
49.724998 55.303288
50.750000 55.404430
51.174999 55.379284
51.224998 55.261971
50.849998 55.176357
50.325001 55.113869
50.099998 55.216698
49.775002 54.698002
49.775002 54.566826
50.000000 54.767963
50.075001 55.013729
49.974998 55.044651
49.599998 55.116703
49.375000 55.169285
49.349998 55.257145
49.325001 55.222313
48.900002 55.295845
48.974998 55.398994
48.849998 55.523754
48.900002 55.466373
48.775002 55.325535
49.200001 55.222748
48.950001 55.098244
48.974998 55.205299
49.049999 55.184471
49.275002 55.218754
49.924999 55.045853
50.875000 55.018623
51.974998 55.196667
52.025002 55.277126
51.849998 55.286369
51.599998 55.491039
50.849998 55.590935
50.375000 55.564880
50.599998 55.595348
50.250000 55.419662
50.424999 55.390404
50.375000 55.270092
50.400002 55.182281
50.000000 55.118195
49.775002 55.219860
49.224998 55.096138
49.099998 54.758450
49.075001 54.808861
49.349998 55.043571
49.224998 55.165394
49.299999 55.204830
49.025002 55.184128
48.924999 55.267979
49.075001 55.230217
49.075001 55.301613
49.174999 55.254765
49.275002 55.270050
50.025002 55.281204
51.125000 55.289352
52.150002 55.295300
52.375000 55.250160
52.174999 55.316170
51.750000 55.166428
51.224998 55.106628
50.799999 55.161938
50.474998 55.103348
50.700001 55.258495
50.400002 55.223297
50.200001 55.247086
50.200001 55.313927
49.900002 55.362709
49.625000 55.348835
49.875000 55.289234
49.775002 55.295208
49.424999 55.299568
49.125000 55.203796
49.474998 55.034939
49.325001 55.010654
49.400002 54.745541
49.299999 54.749962
49.275002 54.901627
49.375000 55.012318
49.299999 54.994148
49.349998 55.030361
50.125000 55.155754
50.974998 55.148308
51.950001 55.241837
52.549999 55.211140
52.474998 55.287693
51.650002 55.393044
50.825001 55.272018
50.599998 55.282642
50.525002 55.191441
50.275002 55.124878
50.400002 54.878384
50.424999 55.044830
50.174999 54.968399
49.924999 55.061050
49.700001 55.029709
49.700001 55.204758
49.224998 55.283031
49.424999 55.241207
49.375000 55.161198
49.500000 55.251244
49.700001 55.316963
49.500000 55.364929
49.450001 55.399933
49.174999 55.277046
49.275002 55.286312
49.724998 55.194118
50.375000 54.829964
51.325001 54.910534
52.325001 55.266220
52.250000 55.327888
51.724998 55.224464
51.224998 55.247940
50.650002 55.166111
50.500000 55.254829
50.500000 55.220627
50.375000 55.245136
50.400002 55.312504
50.174999 55.262711
49.924999 55.325333
49.950001 54.975204
49.375000 55.214451
49.400002 55.240635
49.125000 54.764946
49.450001 54.813606
49.474998 54.849117
49.250000 55.023472
49.250000 54.952808
49.049999 55.000195
49.049999 55.084259
48.974998 55.046650
49.375000 55.217117
50.049999 55.391014
51.299999 55.369495
51.974998 55.551704
52.400002 55.536251
52.125000 55.524975
51.625000 55.566223
50.799999 55.398407
50.450001 55.374886
50.325001 55.159805
50.325001 55.101788
50.075001 55.059448
50.275002 55.176979
49.875000 55.064846
49.700001 55.131443
49.525002 55.081089
49.450001 55.242256
49.299999 55.013531
49.099998 54.945553
49.049999 54.945419
49.200001 55.093758
48.799999 55.103062
48.799999 55.208813
48.825001 55.187038
48.775002 55.220627
49.049999 55.245136
49.599998 55.114586
50.775002 54.969830
51.775002 55.012615
52.075001 55.142799
51.924999 55.237816
51.424999 55.208206
50.549999 55.038158
50.075001 55.210918
49.924999 55.287537
49.849998 55.244492
49.674999 55.163597
50.025002 55.252991
49.900002 55.219280
49.650002 55.293633
49.250000 55.248940
49.224998 55.166843
49.075001 55.156403
49.025002 55.099308
49.250000 55.057636
49.025002 55.027222
48.950001 55.153465
48.900002 55.245598
48.849998 55.263359
48.950001 55.177372
49.174999 53.630234
50.099998 54.133881
51.174999 54.402504
51.599998 54.301678
51.825001 54.772369
51.200001 54.868496
50.575001 55.037621
50.150002 55.210529
50.000000 55.237766
49.474998 55.307121
49.625000 55.159828
49.700001 55.101803
49.674999 55.059460
49.525002 55.176991
49.275002 55.213291
48.900002 55.091343
48.799999 55.150784
48.799999 55.095200
48.724998 55.203075
48.875000 55.182846
48.825001 55.168083
48.625000 55.256268
48.924999 55.221672
48.924999 55.295376
48.875000 55.250214
49.099998 55.167770
50.000000 54.959167
51.575001 54.955357
52.224998 55.051529
51.974998 55.072243
51.750000 55.186321
51.075001 55.220100
50.275002 55.244755
49.974998 55.262741
49.625000 55.176922
49.500000 55.559589
49.900002 55.443047
49.875000 55.407475
49.575001 55.430988
49.150002 55.448151
49.000000 55.460674
48.825001 55.519295
48.650002 55.463116
48.674999 55.372635
48.650002 55.257122
48.599998 55.172817
48.599998 55.111282
48.924999 55.214809
48.750000 55.092457
48.549999 55.102112
48.775002 55.158646
49.450001 55.100937
50.549999 55.207264
51.650002 55.235386
52.250000 55.255909
52.075001 55.320366
51.450001 55.367409
51.000000 55.352268
50.474998 55.440170
49.974998 55.504330
49.625000 55.452202
49.849998 55.265717
50.250000 55.179085
49.825001 55.115860
49.625000 55.218155
49.400002 55.094891
49.224998 55.054413
49.075001 55.123825
49.125000 55.075531
48.924999 55.188721
49.025002 55.172375
49.025002 55.061481
48.900002 55.178467
49.075001 55.263847
49.174999 55.326160
49.299999 55.421116
49.125000 55.391468
49.849998 55.419300
51.325001 55.291183
52.700001 55.296635
53.275002 55.251129
53.250000 55.316879
51.875000 55.364868
51.025002 55.251453
51.000000 55.267639
50.650002 55.378407
50.549999 55.459248
51.000000 55.369812
50.799999 55.304539
50.799999 55.355865
50.700001 55.294357
50.224998 55.348427
50.174999 55.288940
49.575001 55.294994
49.500000 55.348892
49.674999 55.239792
49.849998 55.259129
49.775002 55.471157
49.700001 55.477463
49.400002 55.284149
49.450001 55.192543
49.349998 55.125683
49.525002 55.076881
50.799999 55.239185
52.400002 55.357643
54.025002 55.345139
54.375000 55.533924
53.924999 55.473801
53.049999 55.479393
52.349998 55.532951
51.700001 55.473091
51.174999 55.429398
51.224998 55.298550
51.150002 54.906178
50.700001 54.916676
50.474998 55.072781
50.299999 54.988792
50.150002 55.075939
49.750000 55.139542
49.525002 55.087002
49.325001 55.246571
49.275002 55.214592
49.424999 55.191250
49.299999 55.273182
49.174999 55.332977
49.325001 55.376614
49.224998 55.457947
48.924999 55.418343
48.974998 55.389442
49.125000 55.269394
50.125000 55.379688
51.849998 55.311749
53.799999 55.361122
54.150002 55.199242
53.750000 55.229527
53.000000 55.251633
52.224998 55.267773
51.825001 55.427982
51.000000 55.346992
50.549999 55.337364
50.400002 55.379814
50.325001 55.311844
