54.950001 54.357643
54.799999 54.417377
53.599998 54.362011
52.375000 54.272129
51.349998 54.305489
50.424999 54.230873
49.799999 54.374340
50.099998 54.380085
50.150002 54.384274
50.099998 54.387337
50.025002 54.488533
49.275002 54.463428
48.775002 53.702915
48.549999 53.741611
48.250000 53.769852
48.299999 53.839943
48.549999 53.990063
48.450001 54.050137
48.375000 53.995029
48.275002 53.855850
48.750000 54.001667
50.674999 54.108097
53.424999 54.086811
55.525002 54.269192
55.549999 54.303345
54.775002 54.229309
53.700001 54.373199
52.049999 54.329777
51.549999 54.397038
50.849998 54.248207
50.674999 54.139591
50.325001 54.208752
50.474998 54.358189
49.750000 54.368294
49.299999 54.227238
48.625000 53.926373
48.299999 53.904701
48.025002 54.037327
48.000000 54.134113
48.049999 54.105801
48.150002 54.283054
48.150002 54.511379
47.950001 54.529579
47.750000 54.493385
47.825001 54.417488
49.125000 53.966263
51.625000 54.032776
54.650002 54.081318
56.174999 54.067265
56.000000 54.353886
54.775002 54.464115
53.474998 54.198208
51.849998 54.202057
50.875000 54.204861
50.500000 54.256390
50.099998 54.195045
50.125000 54.150269
49.924999 54.315502
49.400002 54.337147
49.275002 54.352943
48.900002 54.364464
48.525002 54.471836
48.049999 54.401764
47.775002 54.251663
47.799999 54.142117
47.950001 53.913727
47.875000 54.093384
47.525002 53.878159
47.474998 53.869514
47.400002 53.962162
47.875000 53.930820
49.325001 54.056385
52.674999 54.148029
55.049999 54.264389
55.700001 54.398796
55.174999 54.546368
53.349998 54.604603
51.875000 54.647099
50.625000 54.678112
50.099998 54.552311
50.200001 54.361538
49.900002 54.222301
50.000000 54.170166
49.650002 54.033157
48.974998 54.032116
48.875000 54.080837
47.599998 54.116394
46.174999 54.142349
45.724998 54.359200
46.825001 54.418518
47.950001 54.461800
48.424999 54.542877
48.424999 54.651527
47.575001 54.631870
46.549999 54.568039
46.825001 54.471977
49.575001 54.401867
52.599998 54.350697
54.650002 54.313347
54.825001 54.088169
54.150002 54.220703
52.200001 54.317432
50.549999 54.289074
49.375000 54.169418
48.950001 53.686253
48.900002 53.877884
49.375000 53.918793
49.400002 53.948650
49.000000 54.168358
48.450001 54.378185
47.924999 54.382889
47.450001 54.386326
47.299999 54.339352
46.974998 54.305073
47.424999 54.181091
47.325001 53.892693
47.200001 53.880119
47.275002 54.118340
47.674999 54.193245
48.599998 54.198437
49.599998 54.202225
50.599998 54.402905
52.299999 54.549370
53.474998 54.507828
53.450001 54.526989
52.575001 54.738895
50.900002 54.646152
49.750000 54.627941
49.275002 54.565174
48.799999 54.618320
48.974998 54.508678
49.049999 54.131771
49.275002 54.054615
48.924999 53.998295
48.775002 54.006676
48.349998 54.111744
48.150002 54.138954
48.099998 53.960899
47.599998 53.929897
47.599998 54.055714
47.950001 54.098061
47.625000 54.079487
47.349998 54.263844
47.575001 54.398399
47.424999 54.397648
48.075001 54.397095
49.299999 54.495647
51.924999 54.270706
52.950001 54.254963
53.349998 54.243481
52.525002 54.433014
51.375000 54.521866
50.500000 54.487759
49.549999 54.314426
49.450001 54.237400
49.299999 54.428577
49.450001 54.419670
49.200001 54.413162
48.875000 54.309464
48.349998 54.382214
48.299999 54.286873
48.174999 54.365723
48.000000 54.373798
47.700001 54.033337
47.625000 54.081726
47.900002 54.018085
48.000000 54.070595
48.125000 54.059441
47.825001 54.249214
47.650002 54.288765
47.700001 54.169193
48.250000 54.279842
50.000000 54.261635
51.650002 54.099911
52.450001 54.278748
52.424999 54.359798
51.825001 54.468433
50.924999 54.349804
50.349998 54.362175
50.125000 54.173290
49.775002 54.183868
49.974998 54.191597
49.974998 54.098274
49.924999 54.129120
49.500000 54.003193
49.025002 54.010250
48.174999 54.114353
47.924999 54.140858
47.875000 54.160198
48.000000 54.372238
48.150002 54.477505
48.250000 54.356419
48.224998 54.268044
48.099998 54.401463
47.750000 54.300919
48.174999 54.128586
49.075001 54.200722
50.950001 54.203892
52.400002 54.255680
52.875000 54.145050
52.750000 54.163254
51.525002 54.176548
50.724998 54.136768
49.900002 54.206696
49.075001 54.307213
49.825001 54.281612
49.974998 54.262928
49.750000 54.298767
49.599998 54.324924
49.525002 54.245064
49.375000 54.335213
49.575001 54.252567
49.650002 54.291214
48.950001 54.319416
48.575001 54.191563
48.375000 54.246681
48.275002 54.138477
48.275002 54.059509
48.099998 54.001869
48.224998 54.009285
48.474998 54.113651
49.775002 54.140343
52.250000 54.159824
53.474998 54.371964
53.450001 54.378349
53.049999 54.383011
52.200001 54.287457
51.174999 54.217716
50.474998 54.265770
50.049999 54.350327
49.500000 54.362560
49.750000 54.470448
49.325001 54.499706
48.924999 54.422104
49.224998 54.365467
49.299999 54.274651
50.049999 54.406284
49.900002 54.304443
49.549999 54.279594
48.825001 54.162495
48.500000 54.077038
48.150002 54.163097
48.049999 54.176430
48.125000 53.938770
48.174999 54.111660
48.625000 54.287331
49.500000 54.316578
51.349998 54.436886
52.825001 54.376255
53.849998 54.381481
53.775002 54.236858
52.500000 54.230259
51.674999 54.225449
50.849998 54.172459
50.075001 54.232742
49.950001 54.227261
50.174999 54.124302
50.099998 54.049156
50.000000 54.142754
49.674999 53.963665
49.250000 53.981396
48.674999 54.192257
48.750000 54.247192
48.650002 54.336765
48.424999 54.352665
48.474998 54.364265
49.224998 54.422211
49.125000 54.365543
48.325001 54.324181
48.299999 54.195045
48.150002 54.298702
49.700001 54.324879
52.400002 54.294510
53.450001 54.371304
53.825001 54.526302
53.724998 54.342556
52.799999 54.257931
51.825001 54.196167
50.950001 54.349010
50.500000 54.411076
50.299999 54.456375
50.174999 54.439964
49.900002 54.378502
49.500000 54.383121
49.674999 54.238060
49.299999 54.132179
49.025002 54.351788
48.700001 54.462585
48.375000 54.444489
48.349998 54.282848
48.174999 54.164871
48.400002 53.880852
48.349998 54.019913
48.049999 54.071926
48.375000 54.060413
49.125000 54.249924
50.625000 54.289280
52.525002 54.466446
53.349998 54.645222
53.799999 54.726223
52.575001 54.785343
52.125000 54.729530
51.250000 54.589836
50.700001 54.537369
49.924999 54.400112
50.500000 54.398891
50.549999 54.348530
48.974998 54.113846
48.950001 54.140484
51.525002 54.357845
51.750000 54.467003
50.525002 54.348759
49.525002 54.460365
47.924999 54.591309
47.250000 54.538441
47.224998 54.202972
47.750000 54.007618
47.849998 54.112434
47.450001 54.040493
47.450001 54.086952
48.575001 54.021896
51.799999 54.271294
55.025002 54.205917
54.875000 54.108727
53.474998 54.235714
53.650002 54.229427
50.575001 54.422760
51.700001 54.613335
48.950001 54.752430
47.700001 55.101341
48.674999 55.207558
47.674999 55.087166
49.650002 54.702419
51.025002 54.965885
51.400002 55.207657
49.924999 55.136711
48.424999 55.183891
47.049999 55.020412
46.349998 55.049530
49.474998 54.625473
52.150002 54.711807
49.625000 54.675865
52.650002 54.798065
50.275002 54.837780
48.549999 54.718327
48.450001 54.532181
50.599998 54.594242
52.250000 54.738499
53.349998 54.794300
53.849998 54.686588
52.974998 54.657459
51.525002 54.636196
50.025002 54.422764
49.674999 54.266991
49.275002 54.153297
49.500000 54.070316
49.875000 54.158199
49.474998 54.172855
49.325001 54.134075
49.075001 54.056290
48.750000 54.147961
49.025002 54.165382
48.424999 54.128620
48.150002 54.200748
48.650002 54.253387
48.325001 54.390766
48.325001 54.491039
47.275002 54.564213
45.900002 54.568138
46.575001 54.373093
48.674999 54.329697
51.424999 54.149586
53.900002 54.315006
55.275002 54.435738
56.200001 54.325943
55.049999 54.394245
53.250000 54.543045
50.775002 54.503212
49.625000 54.424664
49.325001 54.317856
49.599998 54.190422
50.174999 54.146893
49.924999 54.115120
49.575001 54.190899
49.325001 54.196720
48.625000 54.200966
47.875000 54.105114
48.049999 53.837231
48.150002 53.839642
48.549999 53.890881
48.375000 53.977753
48.400002 54.041157
48.299999 53.988480
48.200001 54.098469
48.500000 54.178738
48.575001 54.187855
50.224998 53.897621
52.750000 54.131111
54.000000 54.202564
53.875000 54.353676
52.325001 54.463963
49.250000 54.791847
46.750000 54.833237
46.424999 54.566570
47.724998 54.569862
48.950001 54.522781
50.174999 54.587383
50.775002 54.436611
50.900002 54.475010
50.400002 54.404079
49.875000 54.253349
49.750000 54.291782
49.474998 54.270351
48.775002 54.155750
48.700001 54.270027
48.349998 54.204998
48.775002 54.157532
48.900002 54.221851
48.974998 54.219315
50.700001 54.069019
50.974998 53.909855
50.075001 53.892647
50.700001 53.830605
52.400002 54.082203
53.125000 54.067909
52.400002 54.008007
51.875000 54.063236
51.375000 54.103546
50.275002 53.935051
50.700001 54.009995
50.025002 53.965733
49.849998 54.131344
49.750000 54.103775
49.599998 54.083656
49.900002 54.167931
49.049999 53.883080
48.474998 54.021545
47.424999 54.172077
45.299999 54.380905
48.075001 54.632271
49.474998 54.865211
47.875000 54.837307
46.349998 54.767456
47.150002 54.617516
48.775002 54.409130
50.349998 54.405476
52.400002 54.303852
54.724998 54.229679
53.799999 54.373466
53.299999 54.280491
55.549999 54.311588
55.400002 54.136364
53.599998 54.305363
49.750000 54.329742
48.674999 54.199097
49.125000 54.103748
49.025002 53.984680
49.000000 53.996735
49.150002 54.005535
49.275002 54.061432
49.000000 54.003273
48.474998 53.861870
48.224998 53.956581
48.099998 53.877270
48.099998 53.918346
48.000000 54.146240
48.049999 54.312565
48.275002 54.087601
48.349998 54.170811
48.924999 54.330498
50.775002 54.298607
51.299999 54.374294
49.099998 54.528488
51.275002 54.789467
50.825001 55.177856
50.799999 55.263397
49.974998 55.177399
50.500000 55.015671
49.500000 55.046070
49.599998 55.068260
49.200001 54.886539
50.549999 54.654953
51.849998 54.683846
50.900002 54.309101
51.750000 54.381950
50.950001 54.385639
50.099998 54.487293
49.325001 54.462521
48.750000 54.296001
48.075001 54.174477
48.000000 54.135254
48.200001 54.106632
48.075001 54.135220
48.525002 54.057129
48.825001 54.000134
50.299999 53.958530
52.299999 54.126091
53.750000 54.198902
53.650002 54.153084
52.950001 54.070164
51.900002 54.158085
51.224998 54.222252
50.599998 54.269085
50.125000 54.253784
49.875000 54.391060
46.900002 54.639683
47.599998 54.920097
47.724998 55.174240
49.299999 55.508152
49.174999 55.603424
48.125000 55.326603
48.075001 55.124565
47.400002 54.878155
48.549999 54.747787
49.650002 54.652641
51.525002 54.286324
52.299999 54.414803
49.900002 54.508579
50.025002 54.478058
51.150002 54.455784
51.799999 54.390045
52.724998 54.391548
53.575001 54.244205
53.450001 54.235630
52.525002 54.229366
51.674999 54.373238
51.049999 54.379280
50.500000 54.334213
50.224998 54.202358
50.400002 54.106129
50.424999 54.184334
50.299999 53.944538
49.750000 53.967438
49.200001 54.132587
48.825001 54.104687
48.799999 54.183277
48.799999 54.240643
48.674999 54.381462
48.750000 54.385281
48.224998 54.239635
47.125000 54.232288
46.950001 54.424847
46.924999 54.713818
48.174999 54.924728
50.700001 54.534389
53.075001 54.744289
53.299999 54.798523
52.875000 54.689671
52.150002 54.808147
51.575001 54.795654
51.224998 54.934971
51.299999 54.789261
52.400002 54.831348
52.775002 54.812592
52.275002 54.749416
51.200001 54.703312
52.875000 54.273830
50.275002 54.257248
49.924999 54.146191
49.450001 54.312527
48.974998 54.334972
48.400002 54.301868
48.099998 54.178757
48.474998 53.792027
48.375000 53.955086
48.924999 54.024616
48.650002 53.976406
48.275002 54.139133
48.950001 54.109459
50.974998 53.790932
53.349998 53.954288
54.900002 54.024033
55.000000 53.926498
54.174999 53.904797
53.500000 53.987911
52.224998 54.246487
51.500000 54.385727
51.099998 54.289436
50.299999 54.268639
49.825001 54.055542
48.549999 54.295845
46.974998 54.916542
46.450001 55.419037
49.549999 55.785778
51.974998 56.102921
51.000000 55.839596
49.224998 55.498974
49.650002 55.299847
46.474998 54.709206
51.924999 54.624489
49.299999 54.414215
49.750000 54.260754
48.099998 54.148750
49.474998 54.116478
51.125000 54.092926
52.700001 53.828342
54.349998 53.932110
54.400002 54.205761
53.375000 54.356010
52.325001 54.317226
51.099998 54.239441
50.650002 54.331112
50.724998 54.447491
50.375000 54.383995
50.299999 54.090256
50.375000 54.024303
49.799999 54.075138
49.474998 54.013275
49.075001 53.869167
48.875000 53.763992
48.575001 53.835667
48.650002 53.690063
48.375000 53.831192
48.775002 53.835232
48.424999 53.739227
48.700001 53.867065
48.625000 53.960381
49.974998 53.533684
52.474998 53.865490
54.674999 54.008709
53.974998 53.964794
55.575001 54.477013
52.474998 55.197208
51.025002 56.019711
52.325001 56.817928
64.400002 57.697376
73.375000 58.388718
68.125000 58.744854
59.650002 58.460499
50.500000 57.708694
43.900002 56.962086
43.424999 56.219254
44.099998 55.726585
46.400002 55.317532
51.424999 54.969509
49.525002 54.764984
48.375000 54.269360
45.825001 54.204506
45.450001 54.157177
47.724998 54.073151
47.099998 54.011826
46.724998 53.868111
47.400002 53.763222
49.875000 53.439270
51.974998 53.598671
52.275002 53.863445
52.799999 53.759815
51.875000 53.783142
50.549999 53.948601
49.775002 54.019878
49.025002 53.972946
48.974998 53.938698
49.224998 53.913696
49.424999 53.944927
49.125000 53.967720
48.900002 54.083321
50.424999 54.266644
47.275002 54.449921
41.950001 54.484722
39.750000 54.411171
41.099998 54.555405
42.625000 54.809109
42.200001 55.043751
42.400002 55.215000
43.825001 55.241032
45.900002 55.161072
49.000000 55.152191
52.025002 55.096230
55.025002 54.610077
56.575001 54.651100
57.650002 54.532597
57.025002 54.495586
55.275002 53.973785
52.424999 54.038265
50.325001 54.035843
49.700001 53.588764
49.099998 53.559345
49.224998 53.537868
49.075001 53.670635
48.799999 53.569611
48.750000 53.644325
48.275002 53.698849
48.500000 53.837601
48.125000 53.938869
47.825001 53.666428
47.625000 53.714981
47.724998 53.948330
47.474998 53.970207
47.299999 53.986172
46.825001 53.997826
46.750000 54.055809
45.174999 53.900208
47.974998 54.083519
48.724998 54.316269
49.799999 54.486141
51.275002 54.758553
52.000000 54.957378
52.275002 55.053005
52.075001 55.122799
51.650002 55.272701
51.049999 54.936787
50.700001 54.691628
50.724998 54.463223
51.450001 54.543911
53.424999 54.404888
52.724998 54.402378
49.775002 54.004719
48.400002 53.665005
48.299999 53.763420
47.275002 53.686817
47.849998 53.531948
48.125000 53.517872
47.974998 53.656036
47.500000 53.558964
47.525002 53.537590
47.599998 53.620953
47.325001 53.582829
48.025002 53.752934
49.474998 53.778118
52.000000 53.845978
53.424999 54.093418
53.900002 54.076099
53.424999 54.063454
52.599998 53.757351
51.549999 53.880299
50.299999 53.970036
49.325001 53.936569
48.924999 54.011101
48.325001 54.114975
46.174999 54.438183
45.775002 54.525639
46.775002 54.688427
47.924999 54.658798
48.700001 54.736130
48.674999 55.039974
48.549999 55.063812
48.575001 54.982250
48.650002 54.922729
48.750000 54.879280
49.650002 54.501213
49.799999 54.373726
52.000000 54.478592
50.049999 54.357216
49.674999 54.120193
51.025002 53.947205
52.674999 53.573555
53.525002 53.696678
52.974998 53.836021
52.000000 53.640842
51.000000 53.696312
50.125000 53.637833
49.400002 53.743591
49.250000 53.820774
49.250000 53.827637
48.974998 54.080032
48.799999 53.967369
48.724998 53.736706
48.200001 53.914715
47.950001 54.094105
46.075001 54.571392
44.000000 54.870258
44.150002 55.187340
46.174999 55.270325
48.174999 55.330887
49.174999 55.127701
49.075001 55.078350
48.375000 55.141300
47.525002 55.088287
48.424999 55.049591
50.275002 54.872910
53.799999 54.645008
56.599998 54.280758
55.974998 54.262306
53.450001 54.298317
50.549999 54.275120
49.599998 54.159233
48.799999 54.173611
48.799999 53.986191
48.875000 53.849403
48.900002 53.749561
49.000000 53.577744
48.750000 53.501823
48.525002 53.594845
48.099998 53.662739
47.825001 53.613323
47.575001 53.775185
47.450001 53.744881
47.525002 53.425888
47.200001 53.737343
47.750000 53.816216
47.750000 53.873783
47.700001 53.915798
47.349998 54.144379
47.549999 54.162769
47.924999 54.176189
49.400002 54.334423
48.674999 54.400436
49.075001 55.091835
51.549999 55.596455
52.674999 56.014225
53.150002 56.022259
52.349998 56.127079
50.075001 55.857227
49.224998 55.214966
48.950001 54.894650
49.549999 54.809311
49.700001 54.598583
51.125000 54.444790
49.400002 54.431503
48.150002 54.273365
47.325001 54.256916
46.349998 54.046982
46.900002 53.695850
46.825001 53.637497
47.174999 53.743351
47.474998 53.622688
47.575001 53.633579
47.775002 53.592049
48.549999 53.561741
49.599998 53.391186
51.250000 53.464619
52.200001 53.567688
52.200001 53.840832
51.474998 53.891754
50.549999 53.928913
49.700001 54.054993
49.224998 54.196491
48.349998 54.596634
46.325001 54.690762
46.825001 55.056335
48.575001 55.273674
49.900002 55.481766
49.775002 55.485210
49.150002 55.537201
48.000000 55.476189
47.424999 55.134785
47.049999 55.231964
46.974998 55.154453
47.724998 54.850483
48.625000 54.678116
49.150002 54.453358
50.625000 54.338799
50.049999 54.304668
49.250000 54.180794
50.525002 53.991432
51.349998 53.952183
52.799999 53.923538
52.950001 53.655231
52.400002 53.756290
50.500000 53.830048
49.700001 53.735443
49.150002 53.468472
49.174999 53.471546
49.575001 53.622231
49.375000 53.732208
49.200001 53.762993
48.775002 53.983379
49.049999 54.144222
48.349998 54.212139
47.349998 54.360661
48.900002 54.518536
46.000000 54.881161
45.424999 55.294254
48.500000 55.694706
52.099998 55.937496
53.275002 56.015732
51.474998 56.023361
49.750000 55.633095
49.349998 55.447216
50.474998 55.311554
51.049999 55.064102
52.799999 54.784550
53.299999 54.580517
53.650002 54.580044
53.375000 54.530209
51.075001 54.394890
48.974998 54.098209
48.400002 53.931156
48.674999 53.908188
48.974998 53.792473
48.525002 53.708023
48.950001 53.695858
48.799999 53.785942
48.549999 53.554813
48.200001 53.534561
48.150002 53.618744
48.325001 53.581223
48.049999 53.751747
48.224998 53.727772
48.025002 53.710274
48.400002 53.895420
50.025002 53.931583
51.924999 53.809551
55.000000 53.967876
50.450001 54.182388
44.150002 54.487389
41.549999 54.709984
44.724998 55.169323
51.250000 55.554047
55.875000 55.735878
54.025002 55.868587
50.299999 55.817005
47.400002 55.680401
46.849998 55.382782
46.700001 55.264530
48.825001 54.980301
50.924999 54.673908
51.799999 54.648205
48.599998 54.184124
46.125000 54.142307
45.500000 54.161255
44.724998 54.076134
44.700001 54.063480
44.724998 53.905811
44.799999 53.790733
46.200001 53.508835
48.924999 53.649445
51.775002 53.801548
53.849998 53.714638
54.599998 53.750168
54.325001 53.776100
53.250000 53.943466
52.250000 53.867699
51.750000 53.861874
50.974998 53.709194
50.750000 53.795670
51.700001 53.957741
47.200001 54.076038
44.450001 54.112892
45.125000 54.238747
46.525002 54.330601
47.924999 54.199722
47.700001 54.401077
47.500000 54.696472
48.299999 55.011024
49.650002 55.191116
49.849998 55.223606
49.625000 55.049397
49.299999 55.070686
48.500000 54.888306
48.900002 54.408844
50.775002 54.454742
55.349998 54.339809
57.125000 54.255924
57.075001 54.293659
56.000000 54.271721
53.500000 54.255707
52.825001 53.848190
51.400002 53.946598
51.549999 53.919464
52.875000 53.949135
52.500000 54.168713
51.924999 54.180527
50.075001 54.090191
48.700001 54.123222
48.349998 54.147327
48.075001 53.719612
48.375000 53.753799
49.000000 53.976662
49.099998 53.990883
49.099998 54.001259
49.200001 54.107796
47.724998 54.284508
47.299999 54.166080
51.325001 54.327049
48.674999 54.494003
46.625000 54.764297
48.000000 54.961563
50.875000 55.105541
53.599998 55.309582
54.875000 55.409019
54.750000 55.283676
54.174999 54.994282
54.025002 54.931499
53.075001 54.836205
55.500000 54.816132
53.525002 54.603569
51.900002 54.547382
50.500000 54.407421
50.924999 54.107353
50.575001 54.086269
50.099998 54.021400
49.099998 53.974060
48.424999 53.840546
48.150002 53.891541
48.650002 53.730843
48.724998 53.663040
48.900002 53.712509
48.200001 53.055904
48.250000 53.318878
48.174999 53.461327
48.075001 53.614765
47.825001 53.875198
50.525002 53.817871
55.625000 54.171867
53.900002 54.133347
50.700001 54.303162
49.825001 54.427090
50.775002 54.369102
51.549999 54.425743
52.424999 54.566040
51.075001 54.717915
50.200001 54.729794
50.400002 54.688992
50.625000 54.362335
51.125000 54.321842
51.575001 54.440731
51.924999 54.428535
52.474998 54.320679
52.150002 54.390400
49.849998 54.292850
48.224998 54.073212
47.650002 54.061352
47.625000 54.003212
48.075001 54.010262
48.174999 53.866966
48.549999 53.762386
48.625000 53.735538
48.700001 53.814896
48.950001 53.922302
50.150002 53.654335
51.875000 53.706150
53.174999 54.040852
54.174999 54.136688
53.924999 54.107677
53.025002 54.086506
52.200001 54.219490
51.450001 53.970192
50.825001 53.986160
50.025002 54.096775
50.650002 54.276463
49.775002 54.308655
49.625000 54.381618
47.549999 54.434872
46.575001 54.473743
46.375000 54.749508
47.000000 54.653896
47.625000 54.732555
48.474998 54.789963
48.849998 54.633942
49.474998 54.717991
50.125000 54.531940
49.875000 54.396149
49.450001 54.099129
51.375000 54.327663
51.025002 54.247059
50.349998 54.188232
51.150002 54.095814
52.724998 54.127331
53.450001 54.051373
54.250000 53.995930
53.375000 53.905987
52.375000 53.939301
52.075001 54.013096
52.224998 54.066952
51.299999 54.007305
50.650002 54.062729
50.150002 54.053699
50.275002 53.997627
50.424999 53.758793
50.900002 53.930832
49.250000 54.006916
51.474998 54.260361
51.299999 54.494816
47.075001 54.616447
44.150002 54.804180
44.325001 54.743282
46.325001 54.797794
48.700001 54.689137
49.950001 54.906712
49.950001 55.065510
49.724998 55.131927
49.549999 55.180405
50.125000 55.017868
52.000000 55.047672
54.299999 54.574638
54.424999 54.427311
55.974998 54.517704
54.400002 54.484711
54.500000 54.510120
52.174999 54.479179
50.450001 54.407124
49.700001 54.354534
49.224998 54.217194
49.849998 53.820076
50.150002 53.777649
49.799999 53.845638
49.200001 53.895256
51.025002 53.733555
50.349998 53.763973
48.549999 53.687218
48.474998 53.581718
48.174999 53.752110
49.625000 53.777519
50.325001 53.993973
50.924999 53.904560
49.450001 53.938263
47.599998 53.962860
48.325001 54.030289
51.474998 54.227936
53.775002 54.025837
50.625000 54.274170
47.575001 54.554379
47.000000 54.956791
49.150002 55.102055
51.474998 55.158600
52.200001 55.199867
51.775002 54.933109
51.025002 55.134254
50.549999 55.132622
50.375000 54.982986
50.150002 54.923264
50.500000 54.681755
51.625000 54.604450
51.849998 54.548027
55.924999 54.605812
51.575001 54.252148
48.950001 54.043507
48.375000 53.891235
48.000000 53.829578
48.575001 53.883533
48.450001 53.922916
48.799999 54.001137
49.000000 53.662395
49.825001 53.712040
51.450001 53.896709
53.424999 53.932529
54.950001 53.958668
54.924999 54.027229
54.125000 54.027794
52.799999 54.028198
52.224998 54.127453
50.900002 53.853542
50.875000 54.098942
50.700001 54.129608
48.900002 54.349907
45.424999 54.609646
46.250000 54.997135
48.075001 55.131504
50.099998 54.833740
50.900002 54.962765
50.250000 55.056938
49.500000 55.274109
49.349998 55.333652
48.825001 54.733879
49.424999 54.691975
49.875000 54.710861
53.125000 54.625694
51.775002 54.365616
52.025002 54.324238
53.625000 54.294041
54.075001 54.173046
53.575001 54.084732
52.674999 54.020275
52.025002 54.022713
52.299999 53.826580
51.849998 53.930824
50.875000 53.907948
50.450001 53.990211
50.700001 54.050251
51.275002 54.094070
51.224998 54.076576
50.250000 54.212246
49.700001 54.063862
48.849998 53.906086
49.125000 53.939381
49.200001 54.112110
49.724998 54.089741
48.549999 54.023930
49.700001 54.074863
49.200001 54.309948
45.825001 54.580490
45.700001 55.025333
49.125000 55.399479
52.799999 55.573589
55.000000 55.403790
54.775002 55.477772
53.474998 55.432812
52.549999 55.350517
51.424999 55.389416
51.424999 54.923019
51.700001 54.928970
52.250000 54.784878
54.025002 54.630234
54.125000 54.566845
53.200001 54.372150
50.875000 54.230042
49.474998 53.878937
49.075001 53.919559
48.775002 53.949207
48.750000 53.822414
48.849998 53.828827
48.924999 53.734554
49.150002 53.814182
48.724998 53.872303
48.724998 53.865234
49.849998 53.711643
52.200001 54.044853
54.549999 54.139606
55.750000 54.208763
55.700001 54.358200
54.775002 54.318825
53.799999 54.685917
52.049999 54.459045
52.125000 54.590347
49.075001 54.834610
47.799999 55.111847
48.875000 55.314186
50.674999 55.412376
51.250000 55.385086
51.075001 55.315689
50.224998 55.166077
49.525002 54.760017
49.575001 54.760529
50.349998 54.810375
50.275002 54.797279
50.549999 54.688763
51.299999 54.560089
50.724998 54.515652
49.325001 54.136864
49.400002 54.058331
50.500000 54.001011
53.099998 54.206566
55.474998 54.307117
55.974998 54.182583
55.275002 54.190659
53.950001 54.196548
53.549999 54.250320
52.174999 54.042175
51.650002 54.038700
51.125000 54.085640
50.625000 54.070415
50.724998 54.059315
50.974998 54.051212
50.125000 53.995811
49.724998 54.153297
48.549999 54.070316
47.775002 54.009758
48.099998 54.262436
46.849998 54.595287
45.750000 54.986652
46.125000 55.371250
47.325001 55.651943
48.375000 56.054726
48.875000 55.952858
49.799999 55.927994
51.325001 55.860359
53.099998 55.909958
54.275002 55.599800
55.674999 55.323959
56.025002 55.073154
57.375000 54.741673
55.849998 54.648182
53.349998 54.431503
50.849998 54.174408
49.525002 54.036251
49.299999 54.034374
49.049999 53.983524
49.299999 54.045364
48.924999 53.991550
48.625000 53.655396
48.500000 53.855370
48.474998 53.902359
48.525002 53.887173
48.375000 54.074009
48.400002 54.061928
48.174999 54.053116
48.450001 53.848766
48.250000 53.848061
47.924999 54.045460
48.974998 54.288490
49.000000 54.663784
50.974998 54.888210
53.325001 55.348881
55.075001 55.586143
55.650002 55.808781
55.424999 55.674393
53.775002 55.675278
52.025002 55.774883
50.674999 55.550701
50.625000 55.139687
51.200001 55.037628
51.650002 54.864178
52.775002 54.539677
51.375000 54.500748
49.375000 54.323902
48.400002 54.194839
47.450001 54.100643
47.799999 53.932930
47.724998 53.860008
47.700001 53.905746
47.700001 53.741211
47.650002 53.571648
48.099998 53.151012
48.049999 53.239849
48.125000 53.502605
48.375000 53.348019
49.849998 53.482594
52.299999 53.580814
54.549999 53.701977
55.099998 53.889362
54.025002 54.125088
54.174999 54.247650
52.450001 54.485538
48.500000 54.609680
47.599998 54.700283
48.424999 54.766411
49.625000 54.963108
50.400002 54.908752
50.700001 54.819603
50.025002 54.754536
49.799999 54.608093
49.450001 54.550682
50.325001 54.409828
51.224998 54.307026
51.125000 54.182518
50.099998 54.042171
49.200001 54.038692
48.500000 54.085640
47.750000 54.020943
47.299999 54.023197
47.250000 53.975372
48.400002 53.841503
50.349998 53.743801
52.849998 53.721977
54.474998 53.854481
54.424999 53.951187
53.424999 53.922813
52.450001 54.050541
51.674999 54.143764
50.650002 54.112839
50.174999 53.842876
50.150002 54.041679
50.325001 54.038338
49.700001 54.283295
49.224998 54.313637
49.775002 54.484215
48.000000 54.757153
45.525002 54.906876
45.424999 55.016148
46.549999 54.799023
47.974998 54.986912
48.549999 54.926125
48.400002 54.683846
48.525002 54.655457
48.599998 54.535782
48.099998 54.497910
49.650002 54.222878
50.974998 54.121105
51.950001 54.294220
54.075001 54.420567
55.174999 54.463306
55.474998 54.445015
54.224998 54.382183
53.349998 54.385811
52.275002 54.240021
51.349998 53.836742
50.150002 53.789803
49.700001 53.854504
49.349998 53.951202
49.674999 53.922821
49.299999 53.902107
49.125000 53.788036
48.825001 53.704777
48.549999 53.693493
48.299999 53.734737
48.349998 53.418484
48.400002 53.484543
47.900002 53.681190
47.599998 53.874195
47.950001 54.163490
48.000000 54.572548
45.650002 54.574226
45.250000 54.773369
46.500000 54.819748
48.799999 54.952560
50.974998 54.901058
53.150002 54.912945
53.400002 54.921623
53.150002 54.631077
52.575001 54.715900
52.349998 54.629372
53.525002 54.417786
53.325001 54.510754
52.200001 54.628082
50.924999 54.565273
50.775002 54.420479
50.200001 54.265320
49.724998 54.003635
49.174999 53.862133
49.099998 53.758862
48.900002 53.683479
48.500000 53.776909
48.474998 53.894577
48.349998 53.782539
48.224998 53.502850
48.674999 53.694550
48.200001 53.834465
48.400002 53.788143
48.375000 53.803818
48.875000 54.013168
50.500000 54.017529
52.650002 54.169151
54.150002 54.428246
53.400002 54.567867
50.174999 55.065601
50.974998 55.329903
53.025002 55.324890
52.625000 55.469673
51.174999 55.723782
49.375000 55.859756
48.700001 55.612644
48.125000 55.531250
47.900002 55.570801
48.025002 55.401752
49.099998 55.080460
50.325001 54.747005
50.849998 54.701553
50.450001 54.470463
49.974998 54.351284
49.049999 53.967426
48.424999 53.637787
47.900002 53.694080
47.650002 53.636200
47.674999 53.593967
47.900002 53.563133
49.049999 53.689075
51.674999 53.583069
53.849998 53.753105
55.049999 53.778248
55.049999 53.796585
54.375000 53.958412
53.525002 53.977562
52.775002 53.942062
52.200001 54.163544
51.450001 54.127281
51.125000 53.902897
50.424999 54.036007
51.474998 54.479504
49.299999 54.803192
47.599998 55.138393
50.625000 55.679916
59.174999 56.273060
65.074997 56.656475
63.200001 56.936314
55.075001 57.190025
45.724998 57.078323
39.775002 56.403049
39.900002 55.959686
42.900002 55.487656
50.375000 55.044197
53.275002 54.967934
52.875000 54.516441
51.275002 54.384838
50.500000 54.189831
51.250000 54.344376
52.099998 54.259262
52.375000 54.048698
52.424999 53.993980
52.400002 53.706646
51.875000 53.793816
50.900002 53.906914
50.525002 53.841022
50.150002 53.743450
50.075001 53.672237
50.049999 53.818176
50.000000 53.776264
49.599998 53.795139
49.150002 53.808926
46.375000 53.868462
52.049999 54.060352
61.200001 54.348843
55.125000 55.004704
49.275002 55.631821
53.549999 56.237949
56.150002 56.185539
54.525002 55.998852
51.400002 55.862602
50.150002 55.565239
50.325001 55.150295
51.299999 55.094849
53.224998 55.054379
52.549999 54.876408
58.049999 54.746517
59.599998 54.354843
57.849998 54.415333
53.000000 54.360527
49.424999 54.271046
47.575001 54.255215
47.500000 54.194191
48.025002 54.149643
48.674999 53.968693
48.724998 53.836628
48.450001 53.740242
48.224998 53.818333
48.200001 53.875332
48.150002 53.867451
48.049999 53.861698
47.750000 53.956455
47.575001 53.976139
47.575001 53.693626
47.849998 53.734833
47.000000 53.962826
49.500000 54.079742
53.075001 54.362991
48.674999 54.569717
46.549999 55.017471
47.825001 55.047382
53.625000 55.316616
59.825001 55.513111
60.349998 55.607048
56.974998 55.774559
52.549999 55.599941
49.549999 55.324059
48.625000 54.924797
49.174999 54.633389
50.799999 54.371239
50.900002 54.229378
48.974998 54.175323
49.275002 54.135876
48.400002 54.107086
47.325001 54.135551
47.075001 54.007893
48.025002 53.766281
48.400002 53.837337
48.049999 53.839718
47.474998 53.841457
47.049999 53.743767
46.875000 53.820904
47.150002 53.679291
48.474998 53.625412
50.750000 53.685051
53.150002 53.431694
54.125000 53.593147
54.000000 53.760452
53.349998 53.981518
52.325001 54.142872
51.599998 54.112186
50.825001 54.089794
47.150002 53.875538
52.250000 54.065517
51.275002 54.550522
47.474998 54.953979
44.200001 55.248444
42.224998 55.413876
43.674999 55.633575
45.900002 55.694958
47.500000 55.591331
48.224998 55.218822
48.025002 54.749027
47.924999 54.801983
48.700001 54.642715
48.025002 54.477001
49.325001 54.504486
49.599998 54.376118
50.799999 54.133984
53.150002 54.204662
55.924999 54.107811
56.325001 54.086601
55.599998 54.021641
54.950001 53.974232
53.799999 53.840668
52.599998 53.891636
51.349998 53.928825
50.525002 53.510658
50.400002 53.601292
49.674999 53.766399
49.299999 53.886902
48.950001 53.826420
48.549999 53.831749
48.200001 53.934597
47.875000 53.663315
47.599998 53.762188
47.549999 53.933304
48.500000 54.206635
45.150002 54.653522
44.275002 55.029156
46.200001 55.303310
47.349998 55.256004
47.924999 55.122520
48.150002 54.629265
49.325001 54.516663
51.799999 54.533440
54.150002 54.446720
55.525002 54.432907
55.275002 54.373348
54.775002 54.280407
54.375000 54.163086
53.450001 54.225903
52.099998 54.271744
50.500000 54.255722
49.500000 54.145077
49.549999 54.163277
49.575001 53.978645
49.099998 53.843895
48.000000 53.795025
47.325001 53.660400
47.099998 53.562149
46.974998 53.589397
46.875000 53.658760
47.025002 53.610428
46.974998 53.773071
46.974998 53.792812
46.875000 53.609306
46.849998 53.821732
46.950001 53.778851
46.650002 53.846516
49.674999 53.994850
37.799999 54.053642
32.224998 54.343941
36.924999 54.605293
45.049999 54.598118
51.974998 54.543407
55.474998 54.800350
55.349998 54.987885
53.474998 55.174236
51.575001 55.013363
50.325001 54.846470
51.575001 54.823627
52.500000 54.460594
51.224998 54.344082
50.450001 54.407482
49.525002 54.305317
48.599998 54.379189
48.424999 54.334145
47.950001 54.202309
47.650002 54.155571
47.174999 53.973019
47.275002 53.641872
47.174999 53.647579
47.049999 53.750702
46.825001 53.628052
47.275002 53.686977
48.200001 53.729977
50.000000 53.662407
52.525002 53.613083
53.875000 53.676048
53.924999 53.722004
53.500000 53.953461
52.474998 54.072910
50.575001 54.061131
50.500000 54.151493
49.349998 54.563793
46.599998 54.864708
46.125000 54.787460
46.849998 54.928993
48.174999 54.982811
49.075001 55.121048
48.875000 55.320900
48.400002 55.417282
48.049999 55.586586
48.075001 55.314312
48.299999 55.264038
48.674999 55.029423
49.974998 54.759235
50.075001 54.710476
48.750000 54.526455
49.700001 54.392143
48.924999 54.294117
47.900002 54.173100
48.825001 53.886852
50.674999 53.776905
52.775002 53.696651
53.375000 53.737041
53.400002 53.815994
52.650002 53.675701
51.750000 53.820709
50.875000 53.431747
50.250000 53.642666
48.525002 53.846077
51.275002 54.142975
47.825001 54.458618
44.875000 54.936386
45.625000 55.384041
51.400002 56.156071
58.974998 56.769009
65.250000 57.018444
61.974998 57.447887
54.650002 57.662354
47.299999 57.620964
41.000000 57.046490
39.000000 56.528259
40.799999 55.952110
43.299999 55.086296
49.900002 54.751263
52.525002 54.605701
50.724998 54.647903
48.450001 54.381828
47.500000 54.237118
48.075001 54.329411
49.674999 54.248337
50.900002 54.189167
51.174999 53.849102
50.974998 53.749344
50.150002 53.775497
49.700001 53.695629
49.224998 53.637337
49.099998 53.594795
49.125000 53.712181
49.150002 53.599934
49.174999 53.666454
48.549999 53.715000
52.599998 53.750431
67.500000 54.073166
64.824997 54.358196
54.500000 54.764137
44.924999 55.307796
39.575001 55.655117
41.375000 55.611725
45.299999 55.876930
48.150002 55.922050
48.724998 55.806549
48.750000 55.375893
48.400002 55.061588
50.099998 54.634274
52.349998 54.371880
53.325001 54.378288
54.299999 54.333485
53.700001 54.201828
51.825001 54.105743
50.099998 54.184048
48.825001 54.241199
49.125000 54.134476
49.150002 54.254501
49.450001 53.946270
49.150002 53.968700
48.875000 53.985073
48.775002 53.947544
48.799999 53.969631
48.525002 53.837315
48.650002 53.740746
48.549999 53.769222
48.375000 53.839485
48.375000 53.940247
48.325001 53.914825
46.650002 54.193150
44.724998 54.495239
44.924999 55.062073
47.599998 55.475773
50.474998 55.579792
52.224998 55.556751
52.775002 55.638893
52.875000 55.599884
52.450001 55.670372
51.924999 55.474426
51.875000 55.281933
51.775002 54.993008
53.049999 54.485260
52.299999 54.362080
52.924999 54.272175
52.000000 54.256039
50.750000 54.145306
49.474998 54.064487
49.174999 54.104465
48.950001 54.084156
48.650002 53.970383
48.849998 53.590462
48.750000 53.857456
48.549999 53.804924
48.650002 53.816059
48.174999 53.774708
48.500000 53.794010
48.250000 53.808098
48.049999 53.472023
48.450001 53.474133
48.525002 53.525162
49.500000 53.661362
51.625000 53.859718
52.500000 53.856052
54.375000 54.051296
50.775002 54.094830
48.099998 54.571918
50.099998 54.672722
50.424999 55.043171
51.375000 55.511452
53.000000 55.902706
53.150002 56.039822
52.125000 55.991459
50.575001 55.609810
48.924999 54.984905
48.674999 54.677265
51.025002 54.452736
49.525002 54.239391
50.150002 54.182632
48.950001 54.141209
48.700001 54.012024
48.525002 53.967213
48.174999 53.835552
48.599998 53.739460
48.724998 53.718807
48.075001 53.753212
47.625000 53.877274
48.599998 53.918346
50.575001 53.948322
52.275002 53.970196
53.025002 53.738773
53.025002 53.767780
52.150002 53.591034
51.599998 53.659954
50.450001 53.561821
49.924999 53.688118
49.650002 53.582371
49.775002 53.554680
49.575001 53.534462
49.125000 53.321796
48.349998 53.562412
54.099998 53.935936
48.349998 54.258041
45.625000 54.789997
45.075001 55.128765
47.549999 55.474968
50.575001 55.529724
51.900002 55.767609
50.950001 55.792786
49.099998 55.563766
47.400002 55.396614
46.575001 55.076702
47.150002 54.942181
50.724998 54.745041
54.575001 54.601166
54.250000 54.100319
54.200001 53.932690
52.525002 54.057755
51.275002 54.050064
50.325001 53.994980
49.575001 54.152687
49.025002 54.020393
49.250000 53.824890
49.674999 53.880108
49.375000 53.870937
49.250000 53.913727
49.049999 53.796509
48.700001 53.612003
48.450001 53.576305
47.974998 53.698685
48.200001 53.590084
48.400002 53.362385
48.200001 53.493084
48.125000 53.489513
48.049999 53.635342
48.049999 53.642818
47.974998 53.697746
48.275002 53.935753
49.900002 53.763115
53.200001 54.082424
52.549999 54.364944
51.075001 54.719585
52.599998 55.225807
60.650002 55.644753
69.099998 55.950516
67.474998 56.173672
57.775002 56.138630
47.049999 55.519302
41.375000 55.166245
42.099998 54.908573
44.325001 54.522594
46.625000 54.438808
49.400002 54.278694
49.875000 54.161842
48.200001 53.928120
47.750000 53.856499
47.424999 53.903183
47.400002 53.838295
47.250000 53.840416
47.299999 53.891453
47.400002 53.780258
47.424999 53.699097
47.224998 53.639874
47.099998 53.547161
47.250000 53.479500
48.424999 53.529076
50.500000 53.614731
52.500000 53.578297
53.825001 53.799099
53.349998 53.910763
52.599998 53.695393
51.200001 53.934036
50.525002 54.256653
49.650002 54.591061
47.549999 55.230965
48.299999 55.945389
55.375000 56.615246
61.525002 56.856739
59.200001 56.835075
50.825001 56.225521
44.250000 56.028034
40.900002 55.685978
41.724998 55.287899
43.924999 54.700485
46.150002 54.370720
47.250000 54.377445
47.974998 54.035995
47.474998 53.984711
47.325001 54.046234
46.724998 53.942703
45.900002 53.966103
47.025002 54.082134
49.150002 54.018383
51.525002 54.021332
52.650002 53.974007
52.849998 53.642593
51.825001 53.697586
50.900002 53.787205
49.950001 53.654690
49.125000 53.607456
48.575001 53.671940
48.200001 53.620052
47.875000 53.780094
48.375000 53.847420
47.674999 53.847076
48.650002 54.094223
48.724998 54.175644
45.375000 54.482460
43.450001 54.854836
44.950001 55.077122
46.799999 55.288845
51.075001 54.998047
52.950001 55.181652
52.299999 55.167210
49.849998 55.156677
48.250000 55.050026
46.349998 54.823750
47.125000 54.559647
47.599998 54.465851
48.849998 54.397396
50.599998 54.198994
51.650002 54.103676
52.099998 54.232021
50.650002 54.078300
49.724998 54.015583
49.099998 53.920330
48.500000 53.801334
47.900002 53.566044
47.775002 53.542759
47.674999 53.525764
47.599998 53.513363
47.799999 53.652748
47.299999 53.754482
47.075001 53.680283
47.174999 53.725094
46.700001 53.658836
46.650002 53.808403
46.724998 53.868084
46.250000 53.862156
46.474998 54.055748
48.700001 54.147564
46.400002 54.412487
44.525002 54.803761
46.125000 55.188290
54.400002 55.765808
62.775002 56.137829
64.449997 56.508305
58.724998 56.729214
51.025002 56.791477
42.799999 56.490574
38.799999 56.073044
39.924999 55.570393
43.500000 55.005619
46.000000 54.840820
48.075001 54.671062
48.974998 54.448208
48.125000 54.483471
47.325001 54.360779
46.474998 54.271225
46.224998 54.007954
46.150002 53.964245
46.150002 53.981827
46.424999 53.846218
46.599998 53.747238
46.025002 53.724480
46.474998 53.806835
46.349998 53.669018
46.625000 53.815830
46.750000 53.824028
46.974998 53.928963
47.025002 54.005550
46.599998 54.011967
48.349998 54.016651
50.349998 54.217987
45.750000 54.562847
45.450001 54.765064
48.450001 55.258999
52.000000 55.570019
54.724998 56.093887
55.599998 56.179359
53.650002 56.241734
50.500000 56.039864
47.924999 56.090450
46.049999 55.929451
46.575001 55.564552
47.125000 55.100311
47.825001 54.909931
47.650002 54.770981
49.224998 54.620090
48.875000 54.411007
47.099998 54.109974
46.325001 53.791306
46.049999 53.855606
46.349998 53.902534
46.525002 53.788345
46.525002 53.853443
46.825001 53.752514
46.900002 53.579895
46.325001 53.503391
46.750000 53.645470
46.674999 53.551254
46.549999 53.581444
47.375000 53.554001
48.250000 53.533970
50.150002 53.667789
51.200001 53.765457
50.549999 53.787258
51.799999 53.902130
49.724998 54.134403
47.849998 54.501846
49.200001 54.868977
53.450001 55.186405
58.875000 55.269642
60.849998 55.379871
57.924999 55.509796
52.125000 55.703587
45.250000 55.449184
42.049999 55.065594
42.625000 53.350742
44.250000 53.484585
46.275002 53.681217
47.349998 53.775257
47.525002 53.744930
46.625000 53.574364
47.099998 53.845711
47.150002 53.895309
46.875000 53.931507
46.549999 53.957928
46.500000 53.927731
46.549999 54.004646
46.950001 53.862869
47.825001 53.759399
49.099998 53.683872
50.549999 53.777195
51.275002 53.894783
51.599998 53.931122
50.575001 53.809208
50.099998 53.720234
49.275002 53.803734
48.625000 53.617279
49.775002 53.332752
47.799999 53.867283
45.375000 54.306892
46.650002 54.875130
51.174999 55.339333
57.875000 55.826565
63.025002 56.132690
61.224998 56.207680
53.950001 56.064487
45.500000 55.762070
40.125000 55.491863
39.650002 55.146221
41.575001 54.893963
44.400002 54.610893
46.250000 54.701172
47.250000 54.371227
47.450001 54.229370
47.474998 54.125843
47.900002 54.248196
48.799999 54.090103
50.299999 54.073681
50.799999 54.061687
50.825001 54.003456
50.474998 54.010441
49.950001 53.768139
49.325001 53.789215
48.825001 53.705635
48.400002 53.793076
48.700001 53.658978
48.700001 53.610584
48.575001 53.674225
48.275002 53.324841
47.349998 53.416199
47.200001 53.680786
47.950001 53.972858
45.325001 54.383938
44.924999 54.683968
45.724998 54.902943
47.450001 55.161713
49.150002 55.301098
49.950001 55.402832
48.974998 55.378120
47.900002 55.261124
47.325001 55.076775
46.875000 55.090672
48.099998 54.902897
50.450001 54.716370
52.900002 54.382320
53.825001 54.237473
54.075001 54.280193
52.799999 54.311367
50.150002 54.185684
49.250000 54.291878
49.075001 54.369377
49.049999 54.277504
48.974998 54.111492
48.900002 54.039810
48.549999 54.036972
48.575001 53.886463
47.775002 53.776619
47.900002 53.696445
47.799999 53.786369
47.674999 53.852001
47.625000 53.553551
47.950001 53.533638
47.849998 53.519104
47.724998 53.557980
47.625000 53.586349
47.349998 53.656536
48.724998 53.955154
47.900002 54.074150
46.950001 54.358906
46.299999 54.715176
48.325001 54.975193
52.099998 55.313408
55.049999 55.411812
55.849998 55.483627
54.200001 55.437088
52.049999 55.452599
49.750000 55.068089
48.500000 54.737972
50.075001 54.497040
50.299999 54.321198
51.849998 54.143383
51.799999 54.162041
50.224998 54.076710
48.900002 54.212337
48.450001 54.162888
47.924999 54.126801
47.825001 54.001499
47.900002 53.860573
47.775002 53.856678
47.900002 53.853832
48.150002 53.752800
48.000000 53.679062
47.974998 53.575768
47.599998 53.401417
47.549999 53.521564
48.400002 53.609257
50.150002 53.772209
51.825001 53.940624
54.025002 53.964581
52.375000 54.179981
48.799999 54.584583
48.400002 54.830410
49.875000 55.257210
51.549999 55.519234
51.325001 55.710472
50.750000 55.157337
49.049999 55.099983
48.724998 55.107609
48.025002 54.667858
47.799999 54.693272
47.450001 54.612854
49.099998 54.306770
50.375000 53.984417
49.650002 53.848106
48.974998 53.946537
48.400002 53.919418
47.325001 53.899628
46.424999 54.083096
46.125000 53.969604
46.474998 53.985737
46.700001 52.513126
47.000000 52.873253
47.299999 53.185566
49.150002 53.265068
50.849998 53.026222
52.375000 52.653976
53.075001 53.025536
52.400002 53.346188
51.474998 53.580215
51.575001 53.652058
51.474998 54.001366
52.525002 54.305794
48.000000 54.527969
44.674999 54.937519
46.375000 55.533306
49.924999 55.918655
54.825001 56.447296
58.200001 56.684689
55.349998 56.610546
48.625000 56.210087
43.174999 55.373535
41.075001 54.960903
42.599998 54.610268
44.224998 54.453312
45.375000 54.338768
47.025002 54.304646
48.500000 54.180779
48.450001 54.189339
46.525002 54.195580
45.025002 54.051704
44.799999 53.847736
45.849998 53.946270
48.349998 53.968700
50.500000 53.886108
52.349998 53.825840
52.275002 53.583931
51.625000 53.555813
50.849998 53.535294
50.000000 53.520313
49.525002 53.558865
48.974998 53.685963
48.625000 53.580803
48.849998 53.553532
47.875000 53.632584
55.349998 54.185070
46.674999 54.538826
42.174999 54.895962
42.974998 55.206104
45.825001 55.729328
47.950001 55.863808
48.750000 56.011433
47.900002 55.970741
46.974998 55.495731
46.799999 55.297482
46.700001 55.004356
46.625000 54.592503
46.825001 54.341393
47.200001 54.257080
51.200001 54.245022
50.099998 54.087784
49.400002 54.022507
49.549999 53.875908
49.325001 53.917347
50.150002 53.848637
49.375000 53.749004
48.849998 53.923687
48.575001 53.853264
47.924999 53.900822
48.049999 53.638660
48.125000 53.595757
47.900002 53.613922
47.700001 53.528225
47.799999 53.515156
47.500000 53.406658
47.724998 53.574875
47.200001 53.499722
47.724998 53.494358
53.099998 53.787315
47.525002 54.001125
42.525002 54.454052
42.599998 54.834099
46.424999 54.814594
51.424999 55.443584
53.900002 55.655262
52.075001 55.611832
48.150002 55.481174
44.750000 55.237377
43.700001 55.009968
45.474998 54.695560
49.150002 54.466087
51.025002 54.199650
52.224998 54.153625
52.075001 54.169518
49.950001 54.379032
49.125000 54.235077
48.049999 54.228962
47.474998 54.175022
47.700001 54.036697
48.125000 53.985222
47.825001 54.145569
47.325001 53.767803
47.599998 53.838451
47.549999 53.890011
47.500000 53.878162
47.299999 53.918995
44.674999 53.899315
55.825001 54.082867
48.125000 54.315788
42.674999 54.634228
42.575001 55.015079
45.400002 55.095116
47.799999 55.252495
49.500000 55.367355
49.650002 55.599621
48.799999 55.670181
47.375000 55.424809
46.150002 55.245720
46.825001 55.016056
47.575001 54.848434
50.250000 54.676624
52.025002 54.452267
52.700001 54.436958
55.174999 54.277348
53.700001 54.160858
50.950001 53.976879
48.200001 53.991047
48.150002 54.001377
47.724998 53.860485
47.900002 53.856613
48.424999 53.655869
48.224998 53.806236
48.275002 53.767540
48.025002 53.541378
47.849998 53.772156
47.049999 53.742668
47.125000 53.721142
47.424999 53.705437
47.650002 53.644493
47.549999 53.698971
47.599998 53.738735
47.125000 53.668797
46.924999 53.617756
46.924999 53.728931
47.000000 53.612160
46.674999 53.774334
48.625000 52.507282
55.174999 52.967945
49.375000 53.699993
46.625000 54.085835
46.700001 54.664307
48.049999 55.284424
49.150002 55.588573
50.025002 55.513680
49.575001 55.409542
48.525002 55.234581
47.775002 55.156364
47.775002 55.000320
48.000000 54.787476
48.674999 54.483688
48.224998 54.360935
49.799999 54.320816
53.200001 54.192585
53.250000 54.098995
50.150002 53.931725
47.000000 53.760170
45.500000 53.733921
45.049999 53.764244
45.575001 53.835854
46.924999 53.789154
47.700001 53.854034
48.549999 53.802429
47.599998 53.962681
47.325001 53.931198
47.375000 53.809265
47.625000 53.720272
48.625000 53.655323
49.049999 53.756359
55.075001 54.028015
51.299999 54.473675
47.750000 54.897900
50.500000 55.306469
57.424999 56.000500
61.924999 56.358593
57.900002 56.323074
49.575001 56.247665
43.000000 55.846279
41.025002 55.503849
42.599998 55.204449
45.349998 54.936451
47.474998 54.641899
48.174999 54.278484
48.500000 54.062729
48.049999 54.202137
47.049999 53.957523
46.549999 53.976913
46.450001 53.941593
46.224998 53.618935
46.750000 53.779282
46.325001 53.896301
46.575001 53.833275
46.650002 53.787277
46.849998 54.001099
46.900002 54.008720
47.224998 54.014282
48.900002 54.018337
50.700001 53.872868
51.924999 53.964611
52.525002 53.932606
52.000000 53.909248
51.174999 53.793243
50.674999 53.857018
50.299999 53.903561
56.200001 54.085968
49.549999 54.417019
44.299999 54.658627
44.400002 55.082363
47.500000 55.292667
50.075001 55.446148
51.125000 55.657135
50.625000 55.860596
49.325001 55.761688
48.125000 55.491592
47.224998 55.244984
46.825001 54.966042
46.700001 54.663494
47.700001 54.442684
47.950001 54.232048
48.250000 54.177277
49.700001 53.939384
48.700001 53.914200
47.424999 53.895817
47.400002 53.783443
48.924999 53.899342
50.599998 53.884972
51.174999 53.874489
51.125000 54.064747
50.250000 54.055172
49.625000 54.048183
49.200001 53.944122
48.799999 54.066093
48.625000 54.006676
48.900002 53.864346
49.150002 53.760475
48.599998 53.437271
47.174999 53.448769
54.200001 53.704563
51.000000 54.039688
43.825001 54.482193
41.674999 55.052547
44.349998 55.468819
47.625000 55.574718
49.575001 55.503571
49.400002 55.451641
48.450001 55.166344
47.424999 55.007603
46.799999 54.842266
47.200001 54.573158
47.349998 54.426235
48.674999 54.170563
51.724998 54.082924
54.275002 53.969475
53.700001 53.985641
52.174999 54.096394
51.250000 53.979305
49.200001 53.943336
48.349998 54.016041
48.349998 54.019623
48.599998 53.923283
48.724998 53.803486
48.724998 54.012928
48.625000 53.918396
48.575001 53.948360
48.174999 53.772305
47.724998 53.594341
47.625000 53.662369
47.549999 53.514099
46.200001 53.405888
53.549999 53.574310
51.250000 53.895145
45.349998 54.129303
42.099998 54.597073
43.075001 54.889000
47.375000 55.102055
52.349998 55.504959
54.625000 55.601093
51.974998 55.374378
48.700001 54.615170
47.750000 54.704288
48.325001 54.521938
50.150002 54.487812
51.049999 52.978527
51.500000 53.361359
51.200001 53.393372
50.849998 53.416733
50.825001 53.433788
50.174999 53.594669
49.275002 53.662609
49.224998 53.712196
48.799999 53.748383
48.224998 53.675842
48.049999 53.820808
47.825001 53.926617
47.474998 53.904881
47.424999 53.938496
47.250000 53.963028
47.299999 53.980930
47.674999 53.895046
47.500000 53.782879
47.424999 53.602058
47.099998 53.569038
47.174999 53.544945
46.900002 53.477879
47.200001 53.527897
48.049999 53.465439
49.575001 53.568291
52.424999 53.841274
53.924999 54.040512
49.025002 54.532276
46.974998 54.940659
49.349998 55.436638
54.375000 56.046024
58.299999 56.391819
57.549999 56.545235
52.875000 56.558250
47.299999 56.023479
43.599998 55.732136
42.625000 55.321583
44.250000 54.922989
46.075001 54.582596
47.750000 54.433117
47.849998 54.126110
48.099998 53.951515
48.125000 53.824097
47.075001 53.731094
46.150002 53.861134
45.700001 53.906563
45.924999 53.890244
46.849998 54.076252
47.250000 54.063564
47.625000 54.054314
48.775002 53.849636
50.549999 53.848698
52.125000 53.946968
52.525002 53.919731
52.025002 53.899857
51.500000 53.835869
50.775002 53.888126
50.549999 53.876789
49.875000 53.670593
49.450001 53.619068
49.000000 53.779373
48.825001 53.846893
49.474998 53.896175
48.400002 53.932137
49.525002 54.156303
47.974998 54.418869
45.250000 54.659977
46.500000 55.182304
53.224998 55.860401
61.625000 56.404778
63.174999 56.604176
55.275002 56.551788
44.525002 56.167202
38.349998 55.935989
37.025002 55.420879
39.174999 55.094418
42.775002 54.856152
45.950001 54.583294
48.700001 54.532589
51.299999 54.446106
52.474998 54.284027
52.650002 54.264694
51.950001 54.102146
51.174999 54.082466
50.674999 53.969147
50.025002 54.084358
49.525002 53.970528
49.325001 53.837971
48.950001 53.741226
49.150002 53.670616
49.075001 53.767517
48.500000 53.640324
48.099998 53.596973
47.700001 53.664291
47.950001 53.614456
48.000000 53.726528
47.575001 53.709370
47.724998 53.597885
47.450001 53.516518
47.599998 53.655048
47.575001 53.756157
47.275002 53.928902
49.650002 54.153946
48.799999 54.219231
47.375000 54.316360
45.349998 54.585167
46.775002 54.830833
52.299999 55.306999
59.275002 55.555573
61.900002 55.687515
58.400002 55.783806
51.875000 55.656174
46.349998 55.612495
44.099998 55.432186
44.825001 54.805794
46.525002 54.793938
48.200001 54.587368
49.375000 54.436600
49.650002 54.326569
48.875000 54.097824
48.349998 54.079311
47.875000 53.917362
47.549999 53.799168
46.900002 53.712902
46.875000 53.798374
47.075001 53.712326
47.275002 53.847443
47.599998 53.847095
47.375000 53.945801
47.349998 54.017841
47.400002 53.724060
47.200001 53.757046
47.325001 53.979031
47.224998 53.893658
48.125000 53.930298
49.875000 53.957043
51.650002 54.174480
52.849998 54.283699
53.674999 54.264454
52.650002 54.250404
50.650002 54.438068
48.650002 54.723473
48.099998 55.426563
49.849998 55.692310
52.224998 55.787312
52.825001 55.757687
50.700001 55.538151
48.174999 55.427402
46.849998 55.198135
46.650002 55.080280
46.900002 54.796352
47.900002 54.589127
48.575001 54.437885
48.875000 54.278027
48.650002 54.210835
47.775002 54.013351
47.474998 53.869228
47.025002 53.813511
46.974998 53.871811
46.924999 53.716442
47.174999 53.702003
47.099998 53.740948
47.375000 53.373535
49.424999 53.550694
51.625000 53.630512
52.924999 53.738247
53.200001 53.618961
52.900002 53.729816
52.275002 53.810730
51.525002 53.919258
50.599998 54.097427
49.924999 54.079021
49.625000 53.917156
49.674999 53.799015
49.575001 53.712795
49.075001 53.798294
48.575001 53.662792
48.474998 53.613369
48.575001 53.478348
48.650002 53.924065
46.900002 54.447289
46.799999 55.027077
51.549999 55.697624
60.599998 56.384933
65.250000 56.837086
60.000000 56.870220
48.849998 56.696480
39.450001 56.322281
36.075001 55.950214
38.525002 55.480743
43.950001 55.039154
49.349998 54.617893
52.549999 54.458885
53.200001 54.392311
52.224998 54.046848
50.599998 53.992634
49.400002 54.052021
48.724998 54.095360
48.849998 53.978558
48.974998 53.893314
49.075001 54.078491
49.200001 53.966248
49.099998 53.983284
48.875000 53.896759
48.549999 54.031525
48.125000 53.981441
47.875000 53.845940
48.000000 53.747036
47.974998 53.674858
48.049999 53.770615
48.099998 53.642590
48.000000 53.400703
48.049999 53.521046
47.974998 53.707840
48.950001 53.794682
50.375000 53.858063
52.250000 53.904327
53.549999 54.284447
53.000000 54.611351
51.200001 54.849941
51.200001 55.221996
52.250000 55.444050
52.000000 55.606117
51.325001 55.625443
50.974998 55.639553
50.625000 55.550892
50.349998 55.288261
49.700001 55.146061
49.424999 54.893837
49.500000 54.610806
49.549999 54.404228
49.474998 54.302940
49.700001 54.179531
49.174999 54.039989
48.700001 54.086582
48.075001 53.972149
47.849998 53.987591
47.349998 53.998859
47.500000 53.957603
47.875000 53.927494
49.325001 53.806561
51.825001 53.817257
53.750000 53.528191
54.974998 53.663570
54.674999 53.811852
54.075001 53.821117
53.200001 53.827885
52.174999 53.832817
51.500000 53.885899
50.625000 53.825684
50.049999 53.831215
49.750000 53.835247
49.724998 54.036114
49.424999 54.034275
49.174999 54.032932
48.474998 53.982475
47.974998 54.094082
48.174999 54.225018
46.400002 54.221626
45.525002 54.664459
47.849998 55.284534
51.724998 55.737099
54.525002 55.820000
54.349998 56.078419
51.549999 55.871189
47.299999 55.868385
44.700001 55.618938
44.549999 55.189491
47.424999 54.925537
50.950001 54.683414
53.025002 54.655140
53.575001 54.585026
52.474998 54.484371
51.275002 54.410912
49.875000 53.961468
49.099998 53.831352
48.575001 53.736393
48.549999 53.815525
48.375000 53.922756
48.349998 53.902065
48.299999 53.886959
48.000000 53.776981
47.525002 53.894627
47.400002 53.832054
47.200001 53.835865
47.174999 54.036560
47.025002 53.935635
47.200001 53.960945
47.150002 53.880451
47.224998 53.772221
47.025002 53.544800
47.000000 53.477772
47.299999 53.676250
47.650002 53.771629
48.474998 54.187595
49.625000 54.689102
54.674999 55.154083
64.275002 55.691360
69.550003 55.984531
64.250000 56.247986
53.700001 56.093910
43.825001 55.734058
39.125000 55.471424
39.625000 55.081829
43.174999 54.846954
46.275002 54.725021
47.825001 54.289669
48.025002 54.169853
47.500000 53.983448
46.724998 53.847397
46.174999 53.797581
46.200001 53.860184
46.349998 53.707954
46.450001 53.646332
46.224998 53.601353
46.400002 53.568523
46.349998 53.742489
46.325001 53.770496
46.450001 53.790936
46.900002 53.459503
47.224998 53.613434
48.224998 53.725788
49.575001 53.510906
50.400002 53.601479
50.750000 53.667576
50.674999 53.616867
50.450001 53.629326
50.000000 53.687904
48.474998 53.978046
47.224998 54.387730
47.224998 54.736210
48.299999 55.188461
49.375000 55.518543
50.549999 55.808918
49.750000 55.723984
48.099998 55.464069
47.174999 55.175419
46.400002 54.865788
46.924999 54.392410
47.875000 53.799530
48.250000 53.960564
48.375000 53.979134
48.250000 53.844246
47.474998 53.844765
47.200001 53.746178
47.250000 53.822670
47.049999 53.927971
46.900002 53.806908
47.299999 53.817509
46.900002 53.726288
47.200001 53.857628
47.950001 53.805050
49.099998 53.816154
50.025002 53.923218
50.375000 53.852924
50.400002 53.900570
50.174999 53.836388
49.724998 53.987465
49.525002 54.048244
49.025002 53.993649
48.575001 53.953804
47.974998 54.073154
47.125000 54.457142
46.549999 53.253017
47.150002 53.908047
47.750000 54.485077
48.525002 54.807266
48.799999 55.240318
48.900002 55.457428
48.549999 55.516926
47.950001 55.510864
47.424999 55.308525
47.474998 55.160851
47.474998 54.954117
47.775002 54.654793
48.099998 54.485813
48.075001 54.214050
48.375000 54.114658
48.075001 53.943161
47.775002 53.966438
47.750000 53.785503
48.849998 53.505020
49.575001 53.498219
49.950001 53.493256
49.849998 53.638073
49.750000 53.644814
49.450001 53.748680
49.299999 53.972931
49.150002 53.988163
48.849998 53.999275
48.974998 53.908428
48.924999 53.891609
48.700001 53.879326
48.674999 53.771408
48.700001 53.692646
48.575001 53.635155
48.700001 53.741638
48.650002 53.918312
47.549999 54.195694
46.474998 54.101261
46.575001 54.626091
47.825001 55.157574
48.849998 55.347557
48.849998 55.436733
48.775002 55.650253
48.000000 55.608185
47.724998 55.478516
47.900002 55.185959
48.875000 55.021919
50.325001 54.902199
50.924999 54.616901
51.200001 54.507633
50.674999 54.229973
50.424999 54.175766
49.625000 54.086716
49.525002 53.873291
49.099998 53.865955
49.224998 53.761650
49.125000 53.833958
49.099998 53.787773
49.025002 53.655106
48.650002 53.805676
48.599998 53.767132
48.599998 53.837959
48.375000 53.790695
48.325001 53.954117
48.625000 53.924953
48.150002 53.705742
48.150002 53.644722
48.075001 53.600182
48.075001 53.666634
48.025002 53.715130
48.349998 53.602093
48.200001 53.668030
48.299999 53.864586
48.700001 54.107002
48.974998 54.382881
49.500000 54.732670
50.625000 55.334324
53.275002 55.971344
55.299999 56.485752
54.474998 56.811707
50.325001 57.049606
47.299999 57.025318
45.500000 56.760197
44.875000 56.269821
45.900002 55.664532
47.200001 54.777454
48.775002 54.575336
49.674999 54.378345
49.500000 54.234573
49.049999 54.030682
48.349998 53.980827
48.075001 53.894966
47.575001 53.733341
47.575001 53.961739
47.650002 53.979988
47.825001 53.943832
48.025002 53.867966
48.250000 53.862072
49.250000 53.857773
50.950001 53.656715
51.400002 53.608932
51.500000 53.623539
51.224998 53.733162
50.799999 53.615246
49.900002 53.578674
49.200001 53.749893
48.325001 54.122257
47.599998 54.591934
47.650002 54.934727
48.849998 55.283871
50.349998 55.736610
51.525002 56.067043
51.450001 56.308201
51.049999 56.385254
50.025002 56.342525
49.075001 56.063946
48.349998 55.563759
48.400002 55.099731
48.250000 54.711586
48.875000 54.527264
49.724998 54.442223
51.174999 54.380146
52.349998 54.235886
52.200001 54.229557
51.525002 54.224934
51.275002 54.073120
50.525002 54.011806
50.000000 54.066010
49.924999 53.957134
49.424999 53.976627
49.674999 53.891903
49.575001 53.879543
49.724998 53.870525
49.599998 53.666023
49.075001 53.615730
48.549999 53.579025
48.349998 53.700668
48.450001 53.591530
48.549999 53.610836
48.549999 53.575455
48.650002 53.549625
48.775002 53.728691
49.150002 53.859383
49.724998 54.053726
49.950001 54.591396
50.599998 55.181736
51.775002 54.177689
53.325001 54.830315
53.174999 55.257145
52.375000 55.618145
51.200001 55.634224
50.299999 55.744915
49.575001 55.627781
49.000000 55.492821
49.049999 55.146915
49.424999 54.894463
49.625000 54.611256
49.250000 54.305603
48.799999 54.280441
48.775002 54.163109
48.625000 54.077484
48.650002 54.113945
48.275002 54.091080
47.974998 54.074394
47.900002 54.062214
48.200001 54.201763
49.650002 54.105694
51.025002 53.936619
51.875000 53.813221
52.299999 53.723160
51.974998 53.805866
50.700001 53.668316
49.950001 53.617401
49.599998 53.679199
49.525002 53.625347
49.825001 53.734482
49.724998 53.863605
49.125000 53.858891
48.174999 54.251282
47.674999 54.587151
47.724998 55.079670
48.450001 55.488617
49.500000 55.836567
51.250000 56.387386
52.400002 56.690437
53.224998 56.911621
51.150002 56.776173
48.500000 56.429916
47.349998 55.979294
48.375000 55.304054
50.474998 54.910194
52.125000 54.523777
52.700001 54.489155
52.474998 54.414398
52.075001 54.260887
50.974998 54.198326
50.275002 54.152660
49.924999 54.119339
49.424999 53.996052
49.299999 54.103996
49.325001 54.034336
49.200001 53.884533
49.250000 53.775208
48.575001 53.695415
48.250000 53.538223
47.849998 53.472973
48.099998 53.524315
48.125000 53.611256
47.700001 53.823154
47.775002 53.977802
47.900002 54.041199
47.299999 54.037983
47.625000 54.431469
48.775002 54.124912
50.650002 54.742310
53.000000 55.242397
54.950001 55.755817
56.150002 56.081051
56.525002 56.466866
56.099998 56.748447
54.450001 57.052917
52.000000 56.631897
50.150002 55.928795
48.875000 55.465115
48.349998 55.027740
48.375000 54.807487
48.450001 54.646732
48.750000 54.380974
48.325001 53.890129
47.750000 53.927731
47.825001 53.955170
47.474998 53.975197
47.250000 53.890862
47.500000 53.779823
47.200001 53.797737
47.250000 53.711861
47.650002 53.550224
47.450001 53.531216
47.575001 53.665779
48.599998 53.566067
50.275002 53.592251
52.599998 53.660843
53.075001 53.809868
52.825001 53.968109
52.400002 54.034119
51.900002 53.983341
51.150002 54.144196
50.025002 54.311073
48.900002 54.482342
48.400002 54.656826
48.375000 55.031563
49.299999 55.502983
50.500000 55.847050
51.750000 56.197117
51.825001 56.403133
51.224998 56.701931
50.400002 56.573654
49.125000 56.331593
48.224998 55.858047
47.799999 55.462959
47.700001 55.174610
48.049999 54.766239
47.700001 54.418713
47.450001 54.264034
47.200001 54.200623
47.250000 54.104862
47.875000 53.985493
49.325001 53.848888
51.150002 53.848152
52.275002 53.748653
52.099998 53.774994
51.500000 53.744740
50.775002 53.821621
50.099998 53.679810
49.299999 53.526833
48.950001 53.514137
49.250000 53.950188
49.349998 53.971561
49.400002 53.888199
48.775002 53.728401
48.224998 53.859169
47.950001 53.905132
47.150002 54.136593
46.599998 54.404488
46.174999 54.748440
46.950001 55.197392
48.049999 55.624008
49.900002 55.935379
51.325001 56.261585
51.500000 56.598629
50.375000 56.498257
48.924999 54.742718
48.599998 54.698421
48.575001 54.567135
50.000000 54.619751
50.674999 54.509720
51.325001 54.379932
51.299999 54.483120
51.224998 54.261562
50.375000 54.198818
50.150002 54.153023
49.625000 54.070122
49.325001 54.009621
49.099998 53.767540
48.924999 53.689823
48.099998 53.682575
48.075001 53.776253
48.025002 53.745651
48.075001 53.723324
47.724998 53.756508
47.700001 53.681767
47.750000 53.775654
47.799999 53.745220
47.724998 53.673534
47.575001 53.819122
47.325001 53.776951
47.250000 53.845127
46.849998 53.993839
45.799999 54.151859
46.349998 54.564068
48.275002 54.864910
50.724998 54.985519
53.875000 55.469379
55.775002 56.069920
55.750000 56.409260
54.349998 56.508484
52.375000 56.382984
50.700001 55.994514
49.575001 55.711002
49.025002 55.306156
49.049999 54.911724
49.349998 54.673340
49.400002 54.400391
49.099998 54.201180
48.599998 54.055786
48.000000 53.900196
47.625000 53.836113
47.549999 53.690392
47.625000 53.633514
47.474998 53.542519
47.500000 53.674026
47.349998 53.572090
47.650002 53.547173
47.875000 53.627941
47.674999 53.587933
47.500000 53.756653
47.474998 53.632397
48.125000 53.591183
50.099998 53.610584
52.000000 53.674225
53.125000 53.770149
52.775002 53.889641
51.900002 54.125290
51.125000 54.049877
50.375000 53.796921
50.299999 53.810226
49.424999 53.770451
48.674999 54.038296
48.075001 54.233788
48.075001 54.524895
48.549999 55.133198
50.049999 55.577160
51.900002 56.247540
53.450001 56.736813
53.500000 56.797031
52.000000 56.791496
49.150002 56.441109
47.375000 55.937984
46.875000 55.521301
46.625000 55.068752
47.325001 54.738461
47.299999 54.299477
47.275002 54.078056
47.650002 53.916447
49.075001 53.946934
50.299999 53.771267
52.174999 53.742020
52.474998 53.770149
51.974998 53.889641
51.099998 53.927372
50.174999 53.855953
49.625000 53.704865
49.349998 53.792511
49.200001 53.559608
49.174999 53.637016
49.000000 53.644039
48.900002 53.599682
48.799999 53.616795
48.525002 53.480839
48.325001 53.381607
48.075001 53.408150
47.875000 53.575962
47.474998 53.648956
47.075001 53.850670
46.224998 54.245285
46.375000 54.632252
47.599998 55.261028
49.424999 55.620979
50.325001 55.784729
50.525002 56.052677
50.450001 56.099800
50.525002 55.936272
51.275002 55.866405
52.000000 55.815418
52.424999 55.530800
52.349998 55.075680
52.200001 54.842472
51.900002 54.573307
51.549999 54.426346
50.799999 54.121166
50.400002 53.354160
49.875000 53.388119
49.325001 53.412903
49.025002 53.579426
48.950001 53.602009
48.724998 53.519524
48.575001 53.706722
48.424999 53.793869
48.500000 53.807995
48.250000 53.768826
48.200001 53.690762
48.025002 53.683258
47.825001 53.529354
47.650002 53.417027
47.825001 53.434002
48.000000 53.594826
47.875000 53.514282
48.825001 53.554459
50.450001 53.534306
52.075001 53.618553
52.724998 53.877956
51.775002 54.215721
50.875000 54.610668
50.950001 55.294754
53.150002 55.843513
57.099998 56.392456
59.450001 56.743618
58.075001 56.999908
54.000000 56.989052
49.400002 56.634766
46.950001 56.079323
45.924999 55.574978
46.650002 55.157406
47.625000 54.852646
48.200001 54.580734
48.075001 54.283321
48.325001 54.066261
48.224998 53.957317
47.974998 53.877808
47.575001 53.770294
47.474998 53.840267
47.375000 53.891342
47.200001 53.879131
47.875000 53.820744
49.549999 53.728649
51.575001 53.859348
53.125000 53.756828
53.250000 53.681999
52.275002 53.627388
51.275002 53.735970
50.450001 53.617298
49.900002 53.679123
49.575001 53.625286
49.625000 53.585999
49.224998 53.804722
48.549999 54.063309
48.250000 54.400478
48.049999 54.893951
48.700001 55.155151
49.650002 55.444740
50.450001 55.656105
50.325001 55.661926
49.674999 55.666176
48.950001 54.976566
48.025002 54.869095
47.900002 54.691708
48.250000 54.512753
48.349998 54.382145
49.000000 54.088909
49.549999 54.023327
51.250000 53.876503
52.950001 54.016739
53.750000 53.921173
53.700001 53.900906
52.875000 54.034554
52.174999 54.033134
51.724998 54.032101
50.849998 53.932384
50.599998 53.909088
50.325001 53.842609
50.275002 53.645649
50.224998 53.600857
49.924999 53.568161
49.525002 53.692745
48.900002 53.585754
48.924999 53.458187
48.750000 53.464035
48.375000 53.468311
48.549999 53.520905
48.674999 53.559296
48.799999 53.686275
48.049999 53.976856
47.825001 54.386860
47.375000 54.686096
48.325001 55.201370
50.974998 55.626915
54.775002 56.085934
57.450001 56.272514
58.025002 56.210770
55.775002 56.017265
53.025002 55.876041
51.250000 55.575054
51.049999 55.206936
51.224998 54.839310
51.424999 54.719444
51.599998 54.631954
51.174999 54.370182
50.625000 54.129654
49.674999 54.201504
49.250000 54.154984
48.750000 54.219990
48.299999 54.069511
48.200001 53.910210
48.099998 53.843422
47.775002 53.646248
48.325001 53.601292
47.974998 53.568481
48.174999 53.692978
48.099998 53.585922
47.825001 53.458309
47.700001 53.464127
47.775002 53.468372
48.299999 53.669392
50.599998 53.667667
53.025002 53.715885
54.599998 53.948990
54.424999 53.970688
53.424999 54.134964
52.450001 54.205376
50.849998 54.207287
49.375000 54.406605
48.974998 54.749989
49.349998 55.099560
50.924999 55.453655
52.974998 55.860523
54.400002 56.206951
53.325001 56.459797
51.099998 56.347454
48.099998 56.215984
46.275002 55.922112
46.224998 55.509720
46.174999 55.060299
47.150002 54.930206
47.250000 54.587860
47.375000 54.436958
47.299999 54.326832
46.625000 54.196972
46.650002 54.102196
46.974998 53.835110
48.375000 53.739136
50.974998 53.669090
52.825001 53.766407
53.500000 54.035347
53.625000 54.083191
52.224998 54.019154
51.474998 53.873459
50.424999 53.915565
49.799999 53.847336
49.474998 53.698578
49.424999 53.886883
49.250000 53.925358
48.974998 53.903965
48.775002 54.135738
48.349998 54.255421
47.900002 54.045898
47.775002 53.991936
47.775002 53.853592
47.724998 53.851582
47.349998 54.097511
46.599998 54.276997
46.424999 54.556438
46.849998 54.958302
48.825001 55.449520
52.500000 56.055420
56.724998 56.497631
58.849998 56.770905
57.900002 57.019829
53.400002 57.003590
49.049999 56.843300
46.849998 56.528393
46.275002 56.001686
47.775002 55.518311
49.299999 54.967609
50.299999 54.565681
50.299999 54.272335
49.825001 54.008766
48.674999 54.063789
48.174999 54.103954
47.825001 54.034309
47.200001 53.884518
47.075001 53.923634
47.049999 53.457394
47.075001 53.463459
47.174999 53.517368
47.299999 53.556713
47.299999 53.684391
47.375000 53.678608
47.224998 53.624912
47.150002 53.635201
46.924999 53.593235
46.974998 53.562603
47.125000 53.540245
46.900002 53.424973
47.450001 53.192402
49.075001 53.270058
51.349998 53.425694
52.474998 53.638241
51.700001 54.139725
50.724998 54.604691
50.424999 55.092472
51.825001 55.745358
53.599998 56.172375
54.450001 56.484035
53.700001 56.711498
52.200001 56.729080
50.825001 56.840858
49.174999 56.625572
46.924999 56.270527
45.424999 55.665047
45.450001 55.223141
46.150002 54.950096
46.674999 54.552895
46.900002 54.263012
46.724998 54.249348
46.849998 54.189903
46.674999 54.047558
46.424999 53.844715
46.250000 53.894581
46.375000 53.832020
46.450001 53.835835
46.674999 53.789143
48.075001 53.952980
49.974998 53.973598
51.924999 53.840210
52.750000 53.742859
52.650002 53.968681
52.174999 53.985062
51.224998 53.997013
50.424999 53.758343
49.875000 53.782063
49.525002 53.601460
49.325001 53.717049
49.424999 53.702446
49.075001 53.741272
48.799999 53.967522
48.075001 54.083168
47.174999 54.365486
46.700001 54.769455
47.325001 55.163250
48.974998 55.549618
51.075001 55.881081
52.900002 56.320919
54.549999 56.691410
55.650002 57.159725
53.549999 57.254128
48.750000 56.778755
44.424999 56.184410
43.075001 55.552711
43.599998 55.240112
46.099998 54.913006
48.700001 54.575310
51.500000 54.576237
52.200001 54.428482
51.900002 54.320641
51.200001 54.241932
50.424999 54.036053
49.724998 53.935268
49.150002 53.713280
49.000000 53.650215
48.849998 53.604195
48.950001 53.719044
48.924999 53.604942
48.775002 53.571152
48.424999 53.546482
47.549999 53.726395
47.575001 53.808231
47.375000 53.768997
47.599998 53.789841
47.549999 53.904015
47.724998 53.838902
47.900002 53.989304
46.974998 54.296978
45.875000 54.768936
46.799999 55.459743
49.250000 56.013405
51.549999 56.516445
51.775002 56.933071
51.474998 57.385582
50.875000 57.468445
50.674999 57.182568
50.474998 56.677048
50.349998 56.110180
50.275002 55.696457
49.625000 55.295544
49.275002 54.706066
49.049999 54.473755
49.000000 54.254723
49.200001 54.094864
49.125000 53.978195
48.974998 53.843563
48.474998 53.794785
48.000000 53.610748
47.650002 53.575386
47.674999 53.549576
47.424999 53.629696
47.750000 53.539738
47.599998 53.523560
47.650002 53.511753
47.625000 53.701050
47.450001 53.690773
47.799999 53.683270
47.599998 53.578835
47.700001 53.700527
48.674999 53.789349
50.250000 53.854176
51.849998 53.406693
51.974998 53.179062
51.549999 53.854073
50.000000 54.445686
49.474998 54.976429
50.625000 55.561703
52.974998 56.335213
55.575001 56.949238
56.549999 57.397377
55.000000 57.625496
51.950001 57.495106
48.799999 57.202023
47.599998 56.592293
47.474998 55.899879
47.900002 55.542973
48.424999 55.381443
48.325001 55.016151
48.349998 54.650589
47.775002 54.581703
47.275002 54.333508
47.250000 54.003925
47.250000 53.763390
47.224998 53.637306
47.525002 53.743210
47.549999 53.622581
47.799999 53.584019
49.224998 53.555882
51.150002 53.535339
52.674999 53.718266
53.075001 53.703335
52.900002 53.741920
52.275002 53.869038
51.450001 53.813377
51.299999 53.822235
50.849998 53.927650
50.650002 54.103554
50.224998 54.083492
49.299999 54.019371
48.325001 54.071533
47.599998 54.307526
47.375000 54.628193
47.075001 55.060150
47.150002 55.622807
48.924999 56.231377
51.775002 56.774498
53.275002 56.725571
52.974998 57.085701
51.599998 57.051662
49.750000 56.383587
47.950001 55.945480
47.450001 55.526772
47.525002 55.221184
48.150002 54.849709
49.375000 54.628075
51.575001 54.416836
53.549999 54.262665
53.575001 54.100666
53.075001 54.081387
52.299999 54.166279
51.099998 53.980831
50.799999 53.944447
50.549999 53.818932
50.500000 53.925247
50.549999 53.854404
50.349998 53.852173
50.299999 54.048462
49.549999 54.043289
49.099998 54.039509
48.974998 53.937798
48.674999 54.110950
48.325001 53.989941
48.474998 53.753178
48.224998 53.778297
47.125000 53.895588
46.549999 54.525459
45.849998 54.886211
47.099998 55.693775
51.400002 56.382130
56.424999 57.181393
58.450001 57.566814
56.549999 57.254360
53.125000 56.976841
50.599998 56.576382
49.799999 56.086185
50.025002 55.629463
50.849998 55.246651
51.250000 54.967258
50.900002 54.664379
50.500000 54.344372
49.750000 54.011860
49.400002 54.066051
49.224998 54.056129
48.674999 53.850967
48.349998 53.651745
48.200001 53.605312
47.950001 53.571419
47.575001 53.695122
47.750000 53.686447
47.599998 53.581154
47.525002 53.603264
47.575001 53.619404
47.375000 53.730141
47.450001 53.712002
47.424999 53.451363
47.250000 53.607494
47.025002 53.671970
47.150002 53.817982
47.599998 54.122467
49.375000 54.790009
51.099998 55.475124
53.174999 56.222542
54.950001 56.867012
55.525002 57.139446
54.575001 57.387760
52.549999 57.519516
50.174999 57.368279
49.099998 57.257904
48.825001 56.781509
49.500000 56.235897
49.974998 55.738728
50.150002 55.474838
49.500000 55.034840
49.025002 54.614750
48.549999 54.308151
47.799999 54.084381
47.900002 54.069500
47.799999 53.860725
47.599998 53.856789
47.299999 53.754963
47.299999 53.680637
47.275002 53.675877
47.250000 53.573444
47.375000 53.548164
47.525002 53.727619
48.224998 53.710167
50.000000 53.746902
52.200001 53.823200
52.750000 53.829403
52.950001 53.883404
52.049999 53.873341
50.599998 53.964954
49.025002 54.229736
47.900002 54.769341
47.174999 55.410561
47.875000 55.829067
50.075001 56.282955
52.275002 56.515263
53.075001 56.734291
52.299999 56.696228
50.500000 56.371574
48.674999 56.134628
48.250000 55.664818
48.299999 55.222973
48.450001 54.999454
48.500000 54.687885
48.299999 54.411007
48.174999 54.060493
48.049999 53.903629
47.700001 53.739666
47.250000 53.817909
47.549999 53.677105
48.650002 53.623817
50.924999 53.584927
52.849998 53.754459
53.200001 53.828712
52.750000 53.882904
51.875000 53.872978
51.375000 54.063644
50.474998 53.955406
49.875000 53.925892
49.525002 54.052788
49.650002 53.898006
49.849998 53.834518
49.325001 53.738705
49.125000 53.668777
48.974998 53.617737
48.775002 53.728920
48.400002 53.859550
48.299999 53.113747
47.700001 53.509529
47.275002 53.897346
47.200001 54.427788
47.450001 54.913883
48.650002 55.268661
50.500000 55.676033
51.650002 55.528030
51.250000 55.222103
50.724998 54.998817
49.700001 54.934814
50.750000 54.739666
52.224998 54.597237
53.075001 54.493290
53.075001 54.318459
53.150002 54.240345
52.549999 54.282288
51.849998 54.263424
51.025002 54.150692
50.299999 54.167377
49.674999 54.130074
49.775002 53.805973
49.700001 53.668392
49.200001 53.815372
48.799999 53.774204
48.275002 53.744164
48.049999 53.821194
48.250000 53.827938
48.075001 53.832855
48.025002 53.638538
47.974998 53.100872
47.775002 53.203255
47.575001 53.426418
47.299999 53.589291
47.750000 53.757645
47.575001 53.979469
46.775002 54.240330
47.575001 54.876030
49.775002 55.389465
53.799999 55.813679
57.525002 56.321205
58.599998 56.493698
57.174999 56.471157
54.275002 56.256786
51.224998 56.001373
49.500000 55.765476
48.950001 55.444878
49.950001 55.111931
50.450001 54.720493
51.000000 55.127514
50.200001 54.632908
49.525002 54.321404
48.700001 54.193016
48.250000 54.198269
48.150002 54.152622
47.849998 54.020348
47.849998 53.824856
47.750000 54.028522
47.575001 53.929775
47.724998 53.907181
47.474998 53.841217
47.825001 53.842552
47.674999 53.794048
48.174999 53.709167
49.375000 53.647213
51.174999 53.602001
53.075001 53.717438
54.025002 53.801693
53.775002 53.912659
53.275002 53.795731
52.349998 53.710396
51.349998 53.895508
50.325001 53.981129
48.950001 54.192062
48.700001 54.890278
48.875000 55.350388
50.599998 55.884117
52.125000 56.372608
53.150002 56.679653
53.049999 56.755314
51.325001 56.563133
49.075001 56.125999
47.599998 55.658524
46.724998 55.416294
46.775002 55.091068
47.325001 54.655792
47.424999 54.437065
47.625000 54.178471
47.325001 54.138172
47.400002 54.059280
47.174999 53.902744
48.099998 54.085377
50.500000 53.971272
52.375000 53.986950
53.250000 54.047871
52.950001 53.993378
52.549999 54.052563
51.775002 53.996796
51.450001 53.956100
50.525002 53.827442
50.200001 53.881973
49.599998 53.723858
49.450001 53.657936
49.174999 53.609825
49.125000 53.574718
49.000000 53.796478
48.150002 54.106777
46.775002 54.531166
46.650002 55.236725
47.650002 55.702202
49.924999 55.646088
51.349998 56.198883
51.450001 56.453907
50.400002 56.442108
48.799999 56.136635
47.075001 55.814724
46.224998 55.431343
46.349998 55.250488
47.025002 55.019539
49.000000 54.801498
51.424999 54.642365
52.849998 54.427261
53.025002 54.418713
52.250000 54.214554
51.525002 54.115025
50.775002 54.141346
50.025002 53.913166
49.724998 53.895061
49.375000 53.832371
48.875000 53.737137
48.974998 53.717110
48.900002 53.554054
48.575001 53.534008
48.275002 53.519375
48.174999 53.607658
48.200001 53.523647
47.924999 53.462345
48.049999 53.566029
47.575001 53.740665
47.799999 53.818642
47.599998 53.875553
47.625000 53.867615
47.599998 54.109207
46.724998 54.236061
46.750000 54.576031
47.700001 55.022079
50.125000 55.397106
53.025002 55.918213
55.375000 56.150101
55.724998 56.319344
54.174999 56.195465
52.375000 56.006096
50.875000 55.571011
49.974998 55.203991
49.500000 54.837166
48.974998 54.470478
49.000000 54.351295
48.549999 54.066387
48.099998 53.858456
48.200001 53.954086
47.875000 53.875454
47.900002 53.867542
47.950001 53.911240
47.825001 53.893658
47.700001 53.880825
47.625000 53.525108
47.900002 53.512882
47.400002 53.503963
47.724998 53.645885
47.674999 53.699986
47.750000 53.739475
48.875000 53.768295
50.875000 53.690369
52.575001 53.781933
53.000000 53.650848
52.549999 53.703609
51.950001 53.890556
51.474998 54.076481
50.799999 54.063732
50.200001 54.153393
49.025002 54.416744
48.349998 54.757385
48.424999 55.104969
49.125000 55.655518
50.724998 56.156292
52.174999 56.719692
51.849998 55.201202
50.500000 55.329914
48.750000 55.225945
47.650002 54.952145
46.799999 54.405956
46.974998 54.353680
47.825001 54.216568
47.875000 54.314415
48.125000 54.237389
47.625000 54.131695
47.400002 54.005077
47.549999 53.566307
48.575001 53.641911
50.174999 53.499168
51.674999 53.493950
52.424999 53.539619
52.400002 53.671913
51.849998 53.570549
51.375000 53.941879
50.924999 53.916016
50.400002 53.996098
49.875000 54.005070
49.799999 53.912651
49.724998 53.746250
49.500000 53.822720
49.424999 53.878529
48.724998 53.869781
48.799999 53.616005
48.950001 53.678177
48.250000 53.822517
47.950001 53.927856
46.650002 54.202660
46.825001 54.650623
49.275002 55.274437
56.349998 55.927647
64.625000 56.206463
62.875000 56.558388
53.549999 56.518368
44.500000 56.439686
41.099998 56.184338
43.424999 55.750580
47.450001 55.483482
51.075001 55.090630
52.875000 54.655468
52.599998 54.535786
51.700001 54.349480
50.525002 54.213501
49.775002 54.015305
49.250000 53.870647
48.875000 53.765068
49.075001 53.836456
48.650002 53.690639
48.424999 53.336815
48.275002 53.375462
48.025002 53.403664
47.700001 53.572689
48.025002 53.597084
47.924999 53.515930
47.875000 53.704102
47.750000 53.495083
47.650002 54.035240
47.275002 54.033638
46.450001 54.081944
45.849998 54.364601
46.174999 54.719334
48.500000 55.176147
51.674999 55.756947
54.400002 56.527191
56.075001 57.039867
56.900002 57.364567
55.450001 57.700508
52.724998 57.945690
49.900002 58.075150
47.849998 58.021206
46.799999 57.536518
46.974998 56.786934
48.174999 56.388298
49.099998 55.849957
49.724998 55.358101
49.299999 55.147552
48.775002 54.795971
48.275002 54.440418
48.000000 54.180912
47.500000 53.991520
47.200001 54.001724
47.049999 53.860741
47.125000 53.757843
47.075001 53.682743
47.150002 53.627930
47.400002 53.637402
47.900002 53.644321
49.224998 53.352489
50.900002 53.535332
52.125000 53.668785
52.299999 53.766182
52.150002 53.837265
51.724998 53.839668
50.599998 53.940380
49.099998 54.112839
47.500000 54.535591
47.250000 55.042042
48.174999 55.560112
49.325001 56.136143
51.099998 56.507069
52.000000 56.777790
51.250000 56.777458
50.099998 56.678257
49.099998 56.160545
48.325001 55.584782
48.224998 55.708828
48.500000 55.156136
48.674999 54.851715
48.599998 54.530571
48.299999 54.246716
48.224998 54.187981
48.075001 53.897717
48.000000 53.784828
49.174999 53.603477
50.700001 53.669041
51.875000 53.815845
52.599998 53.725079
52.200001 53.757790
51.750000 53.682697
51.325001 53.627895
50.599998 53.637379
50.125000 53.545341
49.799999 53.626614
49.799999 53.586964
49.674999 53.607506
49.200001 53.622498
49.125000 53.831360
48.525002 53.785881
48.650002 53.703201
48.049999 53.741825
46.924999 54.017403
46.424999 54.614368
46.549999 54.555271
46.974998 54.957447
48.150002 55.053055
49.700001 54.628048
50.400002 54.565250
50.075001 54.420464
50.500000 54.265308
51.924999 54.349987
53.224998 54.263351
53.700001 52.814709
53.500000 53.043880
52.349998 53.458538
51.375000 53.216900
50.674999 53.188980
50.450001 53.168602
50.000000 53.450603
50.075001 53.557468
49.650002 53.487019
49.275002 53.386124
49.224998 53.213528
48.825001 53.186523
48.549999 53.315247
48.325001 53.409195
48.424999 53.378811
48.325001 53.505070
48.325001 53.646694
48.174999 53.651096
48.049999 54.050144
47.875000 54.143478
47.575001 53.815758
47.599998 53.725010
47.650002 53.658775
47.974998 53.610439
48.825001 54.119434
50.150002 54.688828
51.474998 55.153885
52.599998 55.790176
53.900002 56.155605
54.424999 56.620235
53.700001 56.810902
52.575001 56.801628
51.200001 56.794849
49.750000 56.443550
49.200001 56.088203
49.250000 55.729893
49.525002 55.319946
49.325001 55.020752
49.674999 54.604465
49.275002 54.300640
48.849998 54.029423
48.799999 53.979908
48.549999 53.745857
48.049999 53.673996
47.924999 53.621548
47.974998 53.484310
47.799999 53.532585
47.450001 53.468861
47.650002 53.422352
48.049999 53.586323
49.049999 53.508080
51.049999 53.549934
52.599998 53.580479
53.599998 53.652248
52.974998 53.704632
52.799999 53.643906
52.275002 53.599590
51.025002 53.616722
49.474998 53.728180
48.174999 54.254841
47.049999 54.837143
47.700001 55.460049
49.775002 55.914669
52.200001 56.493866
52.825001 56.619717
51.825001 56.810524
50.700001 57.048740
49.025002 57.024685
48.525002 56.908173
48.375000 56.625221
47.900002 56.072357
48.174999 55.569893
48.625000 55.005257
48.924999 54.593159
48.700001 54.044998
48.849998 53.991280
49.349998 53.803638
50.700001 53.617207
52.325001 53.580097
53.000000 53.800415
52.650002 53.911724
52.099998 53.943493
51.224998 53.917194
50.549999 53.749561
49.900002 53.627220
49.775002 53.686371
49.700001 53.680054
50.000000 53.724926
49.775002 53.708202
49.424999 53.547554
49.250000 53.331345
48.575001 53.569382
48.450001 53.644157
48.250000 53.698723
47.974998 53.886986
46.875000 54.172832
46.325001 54.579372
45.799999 55.123474
46.424999 55.669025
48.549999 56.017708
50.825001 56.519588
51.724998 56.836407
51.650002 57.067635
51.500000 57.137432
51.849998 57.287334
52.500000 56.901947
53.075001 56.076408
53.575001 55.572849
53.625000 55.056889
53.700001 54.779282
53.150002 54.576668
51.900002 54.379318
51.000000 54.136322
50.099998 53.958977
49.575001 53.977970
49.400002 53.497044
48.924999 53.442924
48.924999 53.551861
48.424999 53.680843
48.099998 53.230713
48.099998 53.347500
48.049999 53.581169
48.174999 53.306400
48.174999 53.353260
47.974998 53.387466
47.700001 53.313465
47.474998 53.457375
47.549999 53.413967
47.674999 53.629684
47.625000 53.589207
49.075001 53.559662
50.900002 53.785500
51.549999 54.197720
51.200001 54.696495
50.724998 55.357395
51.500000 56.087143
52.875000 56.570271
53.875000 56.675472
53.750000 56.405907
52.674999 56.308121
50.974998 55.939884
49.950001 55.473213
49.799999 54.984173
50.275002 54.726212
50.400002 54.340019
49.924999 52.623264
49.474998 52.953640
48.775002 52.996834
48.450001 53.176804
47.875000 53.308155
47.700001 53.305061
47.724998 53.550201
47.500000 53.580673
47.549999 53.602913
47.549999 53.421234
47.424999 53.437069
47.674999 53.498108
48.974998 53.394222
50.674999 53.318398
52.224998 53.362011
52.599998 53.542286
52.150002 53.475937
51.349998 53.575958
50.125000 53.549995
49.424999 53.531048
48.924999 53.715137
48.424999 53.898968
48.299999 54.132095
48.299999 54.698074
48.400002 55.111153
48.750000 55.214714
49.424999 55.587177
50.299999 55.809532
50.549999 55.971825
50.299999 55.793396
49.549999 55.564213
48.900002 55.199028
48.474998 54.883018
48.474998 54.652382
48.724998 53.939789
48.424999 53.914490
48.349998 53.797066
48.299999 53.760849
49.000000 53.734421
50.724998 53.616169
52.075001 53.777256
52.750000 53.548477
52.250000 53.678371
51.299999 53.773178
50.775002 53.693935
50.099998 53.685581
49.825001 53.531040
49.500000 53.418255
49.525002 53.385414
49.474998 53.757286
49.075001 53.880249
48.825001 53.673119
48.900002 53.620911
48.474998 53.780720
48.275002 53.748917
48.275002 53.676228
47.825001 53.722134
47.299999 53.755638
46.575001 54.373840
46.049999 54.923992
47.000000 55.374992
48.549999 55.753635
50.599998 56.029984
51.375000 56.033756
51.599998 56.036510
51.450001 55.890083
51.549999 55.783215
52.075001 55.507298
52.825001 55.157490
52.500000 54.803219
52.275002 54.693104
51.349998 54.612732
50.450001 54.356155
49.924999 53.872025
49.625000 53.963993
49.025002 53.882679
48.974998 53.872818
48.700001 53.816132
48.599998 53.725285
48.174999 53.461063
47.674999 53.367180
47.849998 53.397617
48.025002 53.172436
48.000000 53.403923
47.849998 53.374958
47.750000 53.304340
47.575001 53.351753
47.674999 53.386360
47.875000 53.461098
48.099998 53.218765
48.075001 53.437740
48.049999 53.993385
48.674999 54.398926
50.049999 55.090736
51.650002 55.694607
52.900002 56.234299
53.325001 56.479755
52.775002 56.460979
51.424999 56.447273
49.875000 56.288834
49.599998 56.074238
49.450001 55.719700
49.775002 55.312515
49.900002 54.916363
50.025002 54.528282
49.549999 54.096607
48.900002 53.979462
48.424999 53.745533
48.075001 53.822201
48.099998 53.779190
47.924999 53.747799
47.924999 53.724888
47.924999 53.807129
47.500000 53.768192
47.349998 53.591335
48.525002 53.462265
50.500000 53.368057
52.250000 53.546692
53.075001 53.677078
52.950001 53.821716
52.474998 53.828316
51.424999 53.437305
51.000000 53.498272
50.224998 53.542774
50.125000 53.476295
49.924999 53.625694
49.625000 53.635769
49.000000 53.841042
48.250000 54.188782
47.700001 54.591007
47.799999 55.082493
50.025002 55.342236
53.599998 55.630768
55.525002 55.841351
54.150002 55.698166
51.200001 55.742104
48.250000 55.526779
47.150002 54.874832
46.775002 54.497967
47.474998 54.470310
49.000000 54.351170
51.125000 54.214737
53.049999 54.313080
53.875000 54.236416
53.724998 54.180462
52.849998 52.655254
52.224998 53.174900
51.650002 53.405720
50.775002 53.326790
50.125000 53.368141
49.875000 53.398323
49.674999 53.469826
49.474998 53.423054
49.200001 53.289963
49.000000 53.341263
48.500000 53.378704
48.375000 53.455509
48.150002 53.412605
47.900002 53.430771
47.924999 53.740906
47.599998 53.818821
46.875000 54.172558
46.375000 54.430733
46.750000 54.767597
47.400002 55.013454
48.575001 55.192886
50.150002 55.224895
51.724998 55.099815
53.500000 55.008526
54.750000 54.546066
55.025002 54.455940
54.674999 54.291203
53.650002 54.072010
52.575001 54.159431
51.325001 54.173759
50.275002 54.085255
50.025002 54.070137
49.700001 53.960152
49.424999 53.929348
49.174999 53.857395
48.950001 53.755402
48.625000 53.730442
48.474998 53.662743
48.375000 53.613331
48.075001 53.577271
47.974998 53.303558
48.125000 53.301708
48.174999 53.349834
48.049999 53.384956
47.575001 53.410599
47.599998 53.676701
47.875000 53.673004
49.525002 53.571346
51.799999 53.843502
53.424999 53.448383
52.849998 54.001156
51.375000 54.701469
51.400002 55.410503
53.000000 55.927994
54.174999 55.959316
52.799999 55.784264
50.825001 55.359631
49.349998 55.198151
48.650002 54.882378
48.549999 54.701397
48.625000 54.470345
48.700001 54.202755
48.525002 54.205376
48.299999 54.058857
47.825001 53.902431
47.825001 53.986191
47.349998 53.898880
47.150002 53.934109
47.000000 53.860870
47.325001 53.856895
47.424999 53.408676
47.500000 53.328949
48.275002 53.171799
50.474998 53.255024
52.799999 53.464199
53.924999 53.567387
53.900002 53.642700
53.099998 53.697662
52.349998 53.638821
51.950001 53.793785
50.650002 53.758461
50.125000 53.633709
49.799999 53.740582
49.424999 54.065979
48.000000 54.402431
47.099998 54.796417
47.599998 55.182930
48.549999 55.514496
50.150002 55.459618
51.275002 55.518524
50.599998 55.363598
49.400002 55.201046
48.049999 54.933971
47.474998 54.739052
47.700001 54.497826
47.724998 54.420734
48.075001 54.364464
47.799999 54.174961
47.849998 54.086128
49.325001 54.268692
51.450001 54.401939
53.375000 54.400227
53.875000 54.398983
53.125000 54.348591
52.750000 54.113892
51.825001 53.942604
50.924999 53.817585
50.025002 53.726345
49.700001 53.808193
49.349998 53.670010
49.674999 53.618637
49.424999 53.581142
48.875000 53.751694
48.424999 53.826694
48.099998 53.831951
47.924999 53.835785
47.724998 53.937546
47.625000 53.863373
47.625000 53.858723
47.349998 54.003765
46.825001 53.961189
46.849998 54.276463
47.549999 54.457085
48.724998 54.588917
49.674999 54.685127
51.275002 54.903790
52.500000 55.063377
53.674999 54.932449
53.549999 54.836899
53.299999 54.866116
52.750000 54.739006
52.150002 54.596748
51.000000 54.393974
49.974998 54.394417
49.424999 54.196823
49.299999 54.151566
49.400002 53.821663
48.799999 53.828281
48.250000 53.833107
48.049999 53.638721
47.900002 53.595798
47.400002 53.564472
47.825001 53.690052
47.224998 53.682743
47.250000 53.578457
47.224998 52.166401
47.525002 52.521240
47.549999 52.928650
47.474998 53.127041
47.724998 53.172878
48.549999 53.305290
50.174999 53.500885
52.224998 53.495201
53.000000 53.738453
51.974998 53.965469
50.500000 54.329071
49.599998 54.693398
50.450001 55.058262
53.025002 55.423508
56.099998 55.739563
55.900002 55.673355
52.400002 55.377644
48.900002 54.963902
46.599998 54.562977
46.325001 54.468285
46.650002 54.349689
46.924999 54.213657
47.450001 54.312290
47.900002 54.037922
48.099998 54.035591
47.799999 54.033894
47.150002 53.983177
46.775002 53.946159
46.174999 53.721222
46.500000 53.656017
47.150002 53.608421
48.825001 53.672649
50.799999 53.422646
52.375000 53.636017
52.674999 53.692791
52.174999 53.635262
51.299999 53.741718
50.599998 53.621494
49.575001 53.632702
49.125000 53.541931
48.750000 53.673599
48.650002 53.769695
48.500000 53.938793
48.250000 54.111679
47.775002 54.485252
50.000000 54.807392
56.900002 55.240414
64.074997 55.556458
63.099998 55.737640
54.049999 55.671951
44.450001 55.475582
39.474998 55.233295
39.049999 54.957508
41.424999 54.756226
45.500000 54.559849
49.349998 54.367035
51.799999 54.424232
52.474998 54.317539
51.950001 54.338627
50.974998 54.255058
49.650002 54.391987
48.924999 54.096088
48.549999 53.929607
48.174999 53.808102
48.049999 53.620464
48.174999 53.730915
48.049999 53.613609
47.799999 53.577477
47.724998 53.551102
47.400002 53.531853
47.325001 53.567280
47.325001 53.494183
47.325001 53.490311
47.474998 53.685402
47.224998 53.679344
46.625000 53.872849
47.500000 54.211994
49.849998 54.657429
52.825001 55.032005
55.724998 55.107475
56.424999 54.964638
53.924999 54.860390
50.000000 54.833786
47.575001 54.715408
47.150002 54.579533
47.900002 54.381409
48.700001 54.137848
49.125000 53.910606
49.349998 53.992157
48.700001 53.952713
47.974998 53.973404
47.474998 53.988510
47.474998 53.999527
47.250000 53.908611
47.400002 53.891743
47.450001 53.879425
47.474998 53.672523
47.625000 53.620472
47.474998 53.582478
47.974998 53.703190
49.775002 53.593380
51.700001 53.661671
52.700001 53.711510
52.375000 53.451004
51.400002 53.706196
50.400002 53.694527
49.700001 53.735493
49.200001 53.963306
49.150002 53.981133
49.325001 53.994148
49.474998 54.201561
48.849998 54.600338
48.424999 54.891380
50.875000 55.103798
57.049999 55.357788
62.250000 55.543163
61.299999 55.727932
54.400002 55.466953
45.825001 55.128044
41.025002 54.484856
40.674999 54.213352
42.650002 54.064667
45.349998 53.956154
47.974998 53.926437
50.575001 54.003704
51.900002 54.159058
51.974998 54.124004
50.900002 53.999462
50.025002 53.859085
49.150002 53.855595
48.474998 53.754089
48.599998 53.680000
48.799999 53.625931
49.200001 53.734905
49.150002 53.616524
48.875000 53.282726
48.424999 53.237022
47.974998 53.302624
47.674999 53.498940
48.025002 53.543262
48.325001 53.476654
48.224998 53.675434
48.099998 53.771030
47.700001 53.840801
47.625000 53.990688
47.900002 52.665184
49.299999 53.281105
51.924999 53.532711
53.799999 54.013226
54.525002 54.264965
53.950001 54.597130
52.599998 54.245811
51.224998 54.236805
50.325001 54.131264
50.049999 53.856319
50.000000 53.804096
50.424999 53.765976
50.025002 53.639202
49.375000 53.794067
48.799999 53.758659
48.250000 53.831779
48.400002 53.786182
48.275002 53.802387
48.075001 53.814209
48.174999 53.624924
47.875000 53.585732
48.025002 53.557125
48.200001 53.486774
47.974998 53.534382
48.575001 53.519646
50.474998 53.607853
52.875000 53.573277
54.299999 53.696472
54.424999 53.786388
53.450001 53.802536
52.049999 54.012234
51.250000 53.917889
50.424999 54.046944
49.099998 54.141132
48.700001 54.358318
49.025002 54.269432
50.424999 54.748833
52.950001 55.098713
54.974998 55.106682
55.275002 55.458851
52.974998 55.666397
49.224998 55.471523
46.125000 55.230331
44.474998 55.153263
44.775002 54.948578
45.974998 54.650753
47.224998 54.433380
47.549999 54.373703
47.650002 54.280663
47.724998 54.212757
48.924999 54.163193
51.450001 54.324936
52.924999 54.245075
53.549999 54.137299
53.125000 53.761772
52.224998 53.735092
51.349998 53.814571
50.299999 53.674667
49.900002 53.720997
49.375000 53.655849
49.575001 53.608299
49.625000 53.623081
49.275002 53.683342
48.724998 53.628365
48.500000 53.637722
48.075001 53.644554
47.775002 53.600060
47.674999 53.814976
46.875000 54.120277
47.150002 54.541012
48.250000 54.452248
50.250000 54.684341
51.299999 54.853733
51.424999 55.026844
49.400002 54.757347
47.650002 54.610146
48.099998 54.403748
49.775002 54.401546
52.250000 54.350460
53.650002 54.016304
53.700001 53.970337
52.724998 54.085224
51.450001 54.070114
50.525002 54.059090
49.900002 53.952080
49.125000 53.824509
49.325001 53.533478
49.250000 53.518990
49.349998 53.508415
48.825001 53.500698
48.500000 53.594028
48.299999 53.513702
48.049999 53.504559
47.900002 53.497883
48.049999 53.493011
47.849998 53.637890
47.875000 53.595196
47.974998 53.613514
47.924999 53.775318
47.875000 53.744976
47.724998 53.772305
47.750000 53.841736
48.900002 53.645020
50.349998 53.946751
51.775002 54.315407
53.349998 54.782387
56.075001 55.321125
58.900002 55.664841
58.299999 55.569347
53.700001 55.351212
48.924999 55.142529
46.400002 54.495430
46.650002 54.418987
47.500000 54.363186
47.974998 54.223503
48.599998 54.319477
48.450001 54.043171
48.099998 53.989944
47.549999 53.703705
47.325001 53.890629
46.974998 53.680691
47.075001 53.527481
47.275002 53.514614
47.299999 53.505226
47.150002 53.646805
47.450001 53.552227
48.474998 53.532673
50.349998 53.518402
52.200001 53.755386
53.299999 53.878864
52.974998 53.820545
52.150002 53.827469
50.849998 53.931473
49.525002 54.106342
48.575001 53.937096
47.974998 54.159920
48.775002 54.470989
50.375000 54.846451
53.325001 55.071011
55.450001 55.234898
54.400002 55.156601
51.049999 54.852058
47.549999 54.679260
46.400002 54.454189
46.125000 54.289928
46.500000 52.586708
47.349998 53.025913
47.599998 53.198021
47.674999 53.224682
47.299999 53.590492
47.150002 53.560600
47.549999 53.687225
48.799999 53.680676
50.924999 53.626423
52.849998 53.735264
53.599998 53.666264
53.049999 53.714863
51.900002 53.700848
50.974998 53.789585
50.000000 53.854347
49.299999 53.109947
49.549999 53.308838
49.174999 53.453995
49.700001 53.609417
49.275002 53.623898
48.775002 53.535500
48.349998 53.470989
48.125000 53.621822
48.075001 53.830864
48.200001 53.983437
48.174999 54.144268
48.075001 54.459560
48.799999 54.689678
51.650002 54.956585
54.625000 55.200867
56.474998 55.181236
53.924999 55.067951
49.049999 54.836834
46.224998 54.569195
46.825001 54.274902
49.174999 54.208549
51.424999 54.061169
51.875000 53.656727
51.549999 53.905819
50.424999 53.741264
49.450001 53.769600
48.950001 53.839764
48.799999 53.792007
48.825001 53.757164
48.549999 53.682240
48.724998 53.627567
48.575001 53.340263
48.375000 53.526413
48.000000 53.563313
47.900002 53.491287
47.875000 53.587154
47.650002 53.657124
47.775002 53.708195
47.875000 53.498066
47.924999 53.493149
47.650002 53.687477
47.599998 53.581902
47.650002 53.702770
48.674999 53.692028
50.000000 53.981060
51.474998 54.192017
51.924999 54.395454
53.125000 54.543934
58.075001 55.048134
66.849998 55.564560
69.074997 55.743546
61.825001 55.725746
49.724998 55.415878
41.900002 54.991810
39.974998 54.830746
41.924999 54.614227
44.625000 54.406727
46.974998 54.354244
47.775002 54.266457
47.775002 54.202389
47.275002 54.056671
47.000000 53.900841
46.599998 53.836586
46.825001 53.443340
47.025002 53.453201
46.974998 53.460403
47.275002 53.614094
47.375000 53.528355
48.674999 53.515251
50.349998 53.802567
52.599998 53.715382
53.625000 53.849670
53.400002 53.799244
52.724998 53.712955
51.650002 53.946857
50.875000 53.969131
49.924999 53.886429
49.974998 53.826073
49.575001 53.732544
49.224998 53.565319
48.750000 53.641190
47.674999 53.894482
47.849998 54.277256
50.000000 54.804016
53.625000 55.188473
56.750000 55.518547
58.125000 55.462574
57.500000 55.421719
54.700001 55.688778
48.799999 55.537334
42.799999 55.129932
39.474998 54.981026
39.974998 54.723915
42.575001 54.932095
45.674999 54.787159
48.900002 54.335022
51.825001 54.301907
52.950001 54.178783
52.849998 53.989967
51.825001 53.852158
50.825001 53.900013
50.200001 53.737022
49.575001 53.469631
49.299999 53.571354
49.125000 53.546631
48.950001 53.677032
48.700001 53.574287
48.525002 53.499290
48.224998 53.642483
47.875000 53.648026
47.375000 53.701546
47.424999 53.493217
47.625000 53.489605
47.750000 53.734371
47.700001 53.764568
47.200001 54.083481
48.125000 54.712074
52.500000 55.517204
58.400002 55.659508
59.549999 55.763367
54.525002 55.542297
49.525002 55.084072
47.349998 54.898079
47.349998 54.712852
48.125000 54.478706
49.150002 54.505733
50.200001 54.377026
50.075001 54.134651
49.575001 53.710358
49.525002 53.944962
48.775002 52.532852
48.525002 52.689732
48.450001 52.804230
47.775002 52.986755
47.174999 53.070488
47.250000 53.131599
47.174999 53.225681
47.000000 53.393311
47.049999 53.416691
46.775002 53.483238
47.400002 53.531803
47.075001 53.517765
47.575001 53.705437
47.224998 53.496056
47.200001 53.541157
47.599998 53.574074
48.900002 53.548622
51.375000 53.727955
53.549999 53.561970
53.625000 53.737705
52.575001 53.865959
52.099998 54.652279
56.599998 55.275646
65.175003 55.631645
66.599998 55.743031
57.974998 55.923286
47.950001 55.708492
41.599998 55.254848
40.275002 54.923763
42.000000 54.632637
45.075001 54.469643
46.974998 54.350685
47.825001 54.263859
47.325001 54.151012
47.099998 54.167614
46.674999 53.981815
46.525002 53.648289
46.424999 53.602783
46.700001 53.718014
46.500000 53.604195
46.825001 53.570602
46.575001 53.645046
46.674999 53.798328
47.099998 53.860729
48.549999 53.807316
50.924999 53.570415
53.299999 53.842819
53.650002 53.893200
53.250000 53.929970
52.099998 54.055767
50.525002 53.900181
49.250000 53.984547
47.924999 53.848202
47.500000 54.144524
48.325001 54.509232
50.275002 54.973328
53.150002 55.312046
56.000000 55.509773
57.250000 55.753044
54.700001 55.930595
49.325001 55.812778
44.400002 55.182529
42.575001 54.821495
43.599998 54.755917
45.224998 54.460655
46.375000 54.344124
46.825001 54.160114
47.049999 54.273212
47.025002 53.959927
46.924999 53.830231
46.825001 53.735577
47.500000 53.666492
49.025002 53.764503
51.275002 53.836040
52.674999 53.838776
52.799999 53.840771
51.900002 53.743267
50.724998 53.919498
49.900002 53.850208
49.200001 53.898594
48.775002 53.983383
48.950001 53.896832
49.075001 53.883137
49.275002 53.823669
48.799999 53.631824
47.674999 53.887642
46.549999 53.876438
46.950001 54.165131
48.174999 54.425312
49.375000 54.714157
49.674999 54.727062
49.275002 54.686996
48.150002 54.657753
47.375000 54.141617
47.250000 54.210232
47.400002 54.062397
47.875000 53.855537
48.349998 53.951958
49.224998 53.873894
50.900002 54.014839
52.974998 53.919788
54.150002 53.899895
53.950001 53.984333
52.974998 53.947002
51.674999 53.919762
50.275002 53.800915
49.450001 53.466782
49.025002 53.420830
48.875000 53.486256
48.724998 53.286610
48.799999 53.536732
48.724998 53.669800
48.275002 53.667961
48.025002 53.567657
48.000000 53.692375
47.900002 53.684441
48.000000 53.530216
48.000000 53.665047
48.000000 53.713974
47.250000 53.997074
46.750000 54.154221
47.775002 54.466831
51.500000 54.744461
56.525002 55.145004
57.924999 55.288906
55.849998 54.998093
52.299999 54.488976
48.424999 54.612183
46.500000 54.603153
46.275002 54.497604
47.099998 54.321606
48.200001 54.292118
48.825001 53.924244
49.000000 53.952621
48.974998 54.022820
49.174999 54.222488
49.075001 54.120819
48.950001 53.947655
48.750000 53.821274
48.375000 53.729038
48.099998 53.810158
48.000000 53.572487
47.799999 53.547462
47.674999 53.529198
47.349998 53.515865
47.599998 53.605091
47.650002 53.719696
47.250000 53.605423
46.750000 53.522018
46.250000 53.659061
46.150002 53.759087
47.700001 54.030006
49.450001 54.178253
50.875000 54.632805
53.575001 55.112991
60.349998 55.562416
67.650002 55.939899
66.574997 56.017487
56.375000 55.975166
44.924999 55.449482
39.150002 55.065811
39.250000 54.637352
42.200001 54.522564
45.750000 54.389305
47.275002 54.044651
47.875000 54.188950
47.625000 54.145821
47.150002 54.213299
46.700001 54.163589
46.799999 54.077839
46.750000 54.064724
46.974998 53.906719
47.150002 53.791401
46.825001 53.509319
47.025002 53.649796
47.000000 53.554405
47.000000 53.435310
48.250000 53.447338
49.974998 53.456123
51.174999 53.561489
51.924999 53.489960
51.474998 53.536709
50.650002 53.719265
49.724998 53.803028
48.650002 54.062073
48.299999 54.350098
48.724998 54.708744
50.950001 55.019981
54.825001 55.296612
57.500000 55.399551
56.825001 55.425205
52.250000 55.443924
46.950001 55.160717
44.250000 54.904541
44.299999 54.618603
45.799999 54.310966
46.950001 54.135914
47.875000 54.008156
47.924999 53.964390
47.924999 54.130363
47.650002 54.103062
47.575001 54.083134
47.750000 54.068588
48.400002 54.206417
49.849998 54.208046
51.349998 53.912361
51.950001 53.993439
51.625000 53.904171
51.049999 53.937977
49.849998 54.012131
48.875000 53.818848
48.575001 53.826229
48.750000 53.534737
49.049999 53.668346
48.950001 53.815338
48.650002 53.873146
48.275002 54.311169
49.325001 54.630852
50.974998 54.864170
54.025002 55.133423
56.299999 55.280445
54.525002 55.189838
50.575001 55.024754
46.275002 54.805302
44.299999 54.496704
44.799999 54.370426
46.099998 54.080357
48.525002 53.918129
50.900002 53.700764
52.549999 53.888481
53.150002 54.025486
52.575001 54.076000
51.775002 54.063381
51.150002 54.202610
50.299999 54.155788
50.000000 54.121620
49.474998 53.997719
49.500000 53.808338
49.575001 53.818550
49.625000 53.677574
49.150002 53.624157
48.799999 53.832573
48.349998 53.885719
48.000000 53.875034
47.924999 53.768272
47.900002 53.789310
47.299999 53.903622
47.000000 54.135494
47.099998 54.403683
47.750000 54.648895
49.825001 55.075256
53.325001 55.386436
56.875000 55.663029
57.474998 55.419586
54.900002 55.291393
51.625000 55.049389
49.599998 54.625370
49.200001 54.315899
49.674999 54.090034
50.049999 54.073631
50.000000 53.665821
49.775002 53.714539
49.325001 53.651138
49.150002 53.802784
48.525002 53.863976
48.700001 53.809685
48.200001 53.819534
48.125000 54.024639
48.224998 54.025898
48.349998 53.828907
48.174999 53.883041
48.200001 53.873077
48.424999 53.865803
48.174999 53.761539
48.275002 53.685440
49.150002 53.629898
51.400002 53.638844
52.724998 53.793804
52.974998 53.906902
52.700001 53.890495
51.775002 53.977474
50.924999 53.991478
50.200001 53.902733
49.099998 53.936932
48.099998 54.308239
48.150002 54.876114
48.900002 55.043175
50.400002 55.264069
51.900002 55.573715
52.474998 55.799717
51.625000 55.865696
50.775002 55.814899
50.099998 55.579903
49.000000 55.556831
47.500000 55.144161
47.000000 54.793495
46.750000 54.537567
47.275002 54.251820
47.625000 54.191708
47.500000 53.999393
47.549999 53.809563
47.599998 53.671009
49.150002 53.767803
50.875000 53.838451
52.375000 53.890011
52.849998 53.878162
52.099998 53.968475
51.474998 53.836472
50.549999 53.542213
50.049999 53.475883
49.674999 53.575916
49.599998 53.500481
49.424999 53.099075
49.400002 53.201946
49.174999 53.277023
49.099998 53.381294
49.000000 53.457405
48.400002 53.315029
47.950001 53.656433
47.750000 53.856125
47.150002 54.150307
47.875000 54.612408
50.000000 55.098106
53.150002 55.601032
57.200001 55.621735
58.625000 55.933720
55.224998 55.963497
49.250000 55.836796
44.424999 55.694839
43.150002 55.492279
45.299999 55.146526
48.250000 54.795223
50.900002 54.687263
52.200001 54.311596
51.950001 54.235332
50.950001 54.328110
50.000000 54.247379
49.325001 54.188469
49.000000 54.145470
48.875000 54.064606
48.974998 53.807671
48.950001 53.818066
48.674999 53.726696
48.450001 53.660011
48.400002 53.759777
48.150002 53.634674
48.099998 53.592854
48.375000 53.661278
48.275002 53.810188
48.049999 53.720943
48.075001 53.705292
48.174999 53.644394
48.224998 53.797855
48.025002 53.761425
47.549999 53.932751
47.799999 54.057800
48.424999 54.198536
49.799999 54.499172
51.549999 54.817547
54.049999 55.247829
55.924999 55.462910
55.875000 55.669361
53.924999 55.622120
50.674999 55.439205
48.000000 55.206753
47.349998 54.641258
47.549999 54.574890
48.275002 54.328541
49.224998 54.198219
49.650002 54.251545
49.275002 54.092545
48.750000 54.075462
48.500000 53.766113
48.200001 53.936176
48.525002 53.862373
48.575001 53.759033
48.849998 53.683609
48.625000 53.628563
48.275002 53.736828
48.200001 53.815842
48.500000 53.675594
49.525002 53.523754
51.325001 53.511898
52.375000 53.651680
52.549999 53.654736
51.775002 53.656971
51.025002 53.757561
50.299999 53.830975
49.674999 53.488720
49.400002 53.733723
48.650002 54.159924
48.849998 54.767868
50.950001 55.211567
54.275002 55.733318
57.549999 56.114117
57.900002 56.342556
54.000000 56.261883
48.525002 55.609261
45.000000 55.231903
44.075001 55.005970
45.049999 54.791603
46.500000 54.486706
47.700001 54.264179
48.000000 54.299679
47.775002 53.929764
47.974998 53.857697
49.599998 53.805103
51.424999 53.964630
52.000000 53.982105
52.375000 53.846420
52.000000 53.846348
51.349998 53.747334
50.799999 53.774029
50.250000 53.447163
50.025002 53.554951
49.700001 53.534664
49.625000 53.519855
49.500000 53.657486
49.424999 53.658978
48.750000 53.660069
48.799999 53.561905
48.250000 53.688179
47.799999 53.928772
47.450001 54.252808
47.575001 54.637737
48.474998 55.116596
50.224998 55.367130
51.299999 55.648937
52.224998 56.102005
52.674999 56.333721
52.000000 56.354397
49.625000 55.973656
48.375000 55.398891
49.700001 54.880455
51.250000 54.749470
52.849998 54.653870
53.375000 54.287224
52.974998 54.365978
52.474998 54.423462
51.075001 54.316978
50.375000 54.140301
49.625000 53.961884
49.599998 53.881138
49.474998 53.772724
49.125000 53.693607
48.924999 53.388466
48.625000 53.561592
48.750000 53.490032
48.400002 53.487282
48.375000 53.485275
48.000000 53.483810
48.150002 53.581703
48.424999 53.405750
48.325001 53.425770
48.049999 53.687778
48.250000 53.681084
44.674999 54.121513
43.974998 54.690350
47.275002 55.451870
53.349998 56.007660
58.250000 56.215378
58.775002 56.070110
56.400002 56.063042
52.900002 55.909451
50.299999 55.451000
49.125000 54.819523
49.549999 54.556568
49.825001 54.265686
50.375000 54.102871
50.450001 53.984039
50.375000 53.946789
49.549999 53.969078
48.700001 53.886391
48.075001 53.925003
47.799999 53.755264
47.650002 53.680855
47.625000 53.725513
47.900002 53.362270
47.924999 53.295074
47.700001 53.344997
47.924999 53.529869
47.799999 53.466877
47.750000 53.470379
47.625000 53.571899
47.849998 53.744949
48.424999 53.821770
50.025002 53.778877
51.625000 53.747570
52.025002 53.873161
51.500000 53.915344
50.474998 54.045086
48.450001 54.238743
47.450001 54.627472
48.275002 54.960663
50.549999 55.352280
53.000000 55.737057
53.724998 55.968403
52.525002 55.840378
50.150002 55.351105
47.974998 55.043495
46.799999 54.720024
46.974998 54.384983
47.474998 54.338375
48.099998 54.155918
48.224998 54.072231
48.150002 54.159595
47.974998 54.124397
47.825001 54.098709
48.200001 54.079956
48.974998 53.719913
50.150002 53.754021
50.775002 53.580994
50.700001 53.553673
50.525002 53.533730
50.150002 53.667610
49.325001 53.567402
49.275002 53.345837
49.200001 53.382038
48.900002 53.111588
49.174999 53.260559
49.049999 53.468239
48.950001 53.471375
48.924999 53.671585
48.599998 53.768223
48.250000 53.789276
48.275002 53.557247
47.950001 53.536339
47.349998 53.768475
46.450001 54.185287
47.424999 54.687420
51.325001 55.251812
58.174999 56.059566
64.699997 56.401703
64.949997 56.799850
58.349998 56.793552
50.200001 56.393131
44.974998 56.447235
44.349998 55.794014
45.974998 55.267788
47.900002 54.933205
49.224998 54.590050
49.424999 54.290123
49.000000 54.120701
48.250000 54.244446
47.599998 54.136845
47.474998 53.662487
47.400002 53.613144
47.349998 53.577137
47.349998 53.501373
47.400002 53.446075
47.400002 53.356247
47.775002 53.389645
48.599998 53.414013
49.849998 53.580238
50.575001 53.602596
50.974998 53.519955
50.799999 53.707039
50.450001 53.497231
50.075001 53.393578
49.799999 53.466366
49.375000 53.470009
49.549999 53.571632
49.599998 53.497356
48.825001 53.690548
47.174999 53.831543
46.299999 54.577679
47.200001 55.221195
49.174999 55.740345
50.075001 55.822369
50.075001 55.684315
49.424999 55.534077
48.500000 55.177036
48.325001 54.817490
48.250000 54.555080
48.650002 54.413036
48.974998 54.309368
49.250000 54.035789
50.049999 53.885597
50.924999 53.874947
51.549999 53.867161
51.375000 53.663574
50.875000 53.613937
50.349998 53.726151
50.049999 53.610134
49.700001 53.525459
49.549999 53.513138
49.275002 53.504147
49.325001 53.646019
49.275002 53.650608
48.875000 53.357079
48.650002 53.538685
48.400002 53.572273
48.400002 53.596783
48.375000 53.614670
48.625000 53.825649
48.275002 53.831184
47.400002 53.637314
46.599998 53.891655
46.150002 54.275192
46.974998 55.000435
48.349998 55.628700
50.424999 56.235680
51.900002 56.678677
52.174999 57.051476
51.625000 57.224594
51.125000 56.658241
50.625000 56.145931
50.025002 55.722553
49.974998 55.413544
49.924999 54.990108
49.549999 54.730537
49.424999 54.689533
49.525002 54.263775
49.474998 54.051998
49.299999 53.897430
49.075001 53.784622
48.950001 53.850727
48.599998 53.651573
48.400002 53.605183
48.325001 53.571323
48.349998 53.744530
48.025002 53.673027
47.974998 53.175526
48.099998 53.257740
48.075001 53.466183
48.299999 53.618313
48.000000 53.679863
47.875000 53.675312
48.174999 53.375111
48.549999 53.452885
49.474998 53.559128
49.299999 53.735626
48.900002 54.062359
48.674999 54.647182
49.000000 55.074005
50.049999 55.385525
51.525002 55.761322
52.275002 55.540802
51.775002 55.775692
50.825001 55.501812
50.575001 55.054523
50.200001 54.925999
49.849998 54.584793
49.375000 54.385242
48.950001 53.992207
48.450001 53.853794
48.250000 53.802254
48.299999 53.616196
48.549999 53.579361
48.525002 53.453514
48.474998 53.609066
48.650002 53.524681
48.424999 53.562050
48.974998 53.539841
50.075001 53.424675
51.075001 53.489059
51.325001 53.536053
51.375000 53.619835
50.974998 53.779934
50.500000 53.649384
49.924999 53.504627
49.825001 53.547413
50.000000 53.776558
49.825001 53.745880
50.025002 53.575058
50.000000 53.450375
49.500000 53.408855
49.400002 53.576477
48.900002 53.698807
48.825001 53.540699
47.700001 53.821133
47.450001 53.926853
47.424999 54.399841
48.349998 54.794529
49.275002 54.785717
50.400002 55.175117
50.875000 55.063488
50.900002 55.179928
50.900002 55.363873
51.275002 55.349686
51.775002 55.240368
52.250000 54.962669
52.599998 54.364162
51.924999 54.224220
51.400002 54.171562
50.799999 53.885735
50.325001 53.875046
49.724998 53.768284
49.525002 53.690365
49.674999 53.682972
49.424999 53.677578
49.299999 53.574684
49.099998 53.499580
49.174999 53.642693
49.349998 53.697659
49.450001 53.688297
49.299999 53.631981
49.099998 53.640366
49.125000 53.498039
49.049999 53.394169
48.900002 53.367840
48.799999 53.150703
48.924999 53.190151
48.900002 53.268414
50.125000 53.226582
51.325001 53.295002
52.174999 53.592335
52.275002 53.710392
51.875000 53.549152
50.724998 54.025215
49.450001 54.323193
49.325001 54.887028
50.825001 55.348015
52.575001 55.832901
53.900002 56.236271
53.724998 55.986404
52.224998 55.705078
50.375000 55.004959
49.849998 54.741383
49.549999 54.450050
49.450001 54.187946
49.000000 53.996651
48.974998 53.857037
48.799999 53.953053
49.150002 53.676781
49.424999 53.574100
49.200001 53.746555
49.150002 53.822945
48.974998 53.779732
49.099998 53.649239
49.900002 53.603477
51.375000 53.718517
52.549999 53.654037
52.900002 53.409061
52.500000 53.477665
51.900002 53.626698
51.150002 53.537544
50.799999 53.521954
50.700001 53.510586
50.700001 53.403324
50.825001 53.226078
51.000000 53.443077
50.450001 53.551975
49.700001 53.829365
48.950001 53.982338
48.450001 54.390858
48.799999 55.084850
49.375000 55.789265
50.500000 56.253910
51.625000 56.395103
52.000000 56.201275
51.849998 56.653568
50.799999 56.538357
49.299999 56.058437
48.700001 55.559731
48.625000 55.096798
50.125000 54.363094
51.825001 54.322399
53.200001 54.292698
53.575001 54.122585
52.950001 54.196342
51.849998 54.052258
51.224998 53.501781
50.750000 53.545334
50.500000 53.725563
50.325001 53.510746
50.525002 53.403442
50.650002 53.424084
50.424999 53.439152
50.299999 53.598587
49.700001 53.517033
49.325001 53.506992
49.250000 53.202785
49.325001 53.277641
49.200001 53.381744
49.025002 53.457733
49.200001 53.414230
48.775002 53.728832
48.275002 53.958439
47.849998 54.224979
47.375000 54.666908
48.500000 54.841011
51.299999 55.462868
54.174999 55.916725
56.400002 56.247974
56.525002 56.687649
55.275002 56.909580
53.775002 57.022083
52.075001 56.658878
50.549999 56.195877
50.150002 55.462124
50.349998 55.124519
50.650002 54.729683
50.575001 54.490993
50.275002 54.415741
49.674999 54.212391
49.450001 54.162926
49.174999 52.444534
49.724998 52.823196
49.500000 53.099552
49.025002 53.103336
48.750000 53.205059
48.299999 53.279293
48.625000 53.481911
48.349998 53.332916
48.525002 53.273655
50.000000 53.329361
52.075001 53.567932
53.700001 53.692577
54.799999 53.684593
54.325001 53.629276
53.650002 53.885784
52.474998 53.924561
50.400002 54.051819
49.125000 54.738449
50.275002 55.388012
53.625000 56.158970
57.825001 56.721645
58.599998 57.132317
55.974998 57.333076
51.500000 57.133247
47.900002 56.690533
46.299999 56.070545
46.900002 55.469612
48.125000 55.129986
48.525002 54.882111
48.849998 54.552757
48.400002 54.213428
47.700001 54.163685
47.375000 53.731552
47.349998 53.713036
48.099998 53.699516
50.000000 53.640179
52.424999 53.646343
54.250000 53.601364
54.825001 53.568535
54.450001 53.544575
53.674999 53.675529
53.025002 53.573193
52.549999 53.547977
51.775002 53.628529
51.375000 53.588364
51.200001 53.806450
51.299999 53.767696
51.025002 53.640457
50.325001 53.547592
49.849998 53.578770
49.349998 53.651005
48.775002 53.654243
48.700001 53.607132
48.075001 53.671707
47.724998 53.520916
44.924999 53.410866
48.224998 53.874817
49.375000 54.609261
49.325001 55.244251
51.974998 55.955090
55.224998 56.473885
55.000000 56.456699
52.924999 56.295715
51.625000 55.930824
51.924999 55.615032
52.525002 55.335079
53.099998 54.883354
53.075001 54.652630
52.474998 54.583195
51.849998 54.384079
50.849998 54.238758
50.224998 53.736862
49.525002 53.667431
49.049999 53.616760
48.625000 53.629250
48.349998 53.539413
47.875000 53.523319
47.549999 53.511578
47.450001 53.700924
47.174999 53.690681
46.974998 53.336849
47.275002 53.326004
47.099998 53.516003
47.500000 53.605198
47.400002 53.620815
47.299999 53.533253
47.125000 53.518826
46.924999 53.409336
47.224998 53.329430
48.799999 53.271107
50.900002 53.327507
52.275002 53.517101
51.474998 53.902874
50.150002 53.788589
48.650002 54.397892
48.974998 55.139462
50.299999 55.284855
51.174999 55.242538
52.000000 54.914772
52.150002 54.873470
51.500000 54.645409
50.375000 54.478966
49.275002 54.357491
48.875000 54.021435
48.875000 54.023556
49.075001 53.876671
48.750000 53.571552
48.500000 53.546776
48.200001 53.627655
48.049999 53.538250
47.575001 53.621433
47.224998 53.583183
47.224998 53.258396
47.875000 53.367706
49.650002 53.398003
51.450001 53.420116
52.650002 53.683647
52.599998 53.678070
51.924999 53.772961
51.174999 53.644299
50.325001 53.500912
49.900002 53.495224
49.700001 53.392113
49.450001 53.415817
48.525002 53.581554
47.375000 54.098358
47.075001 54.673450
48.674999 55.043701
50.299999 55.116009
51.349998 55.465656
50.724998 55.572411
49.474998 55.551365
48.400002 55.486523
47.700001 55.439198
47.924999 55.058308
48.525002 54.532921
49.275002 54.396866
50.125000 54.446003
51.875000 54.333431
53.599998 54.102833
54.549999 53.934528
53.799999 53.811695
52.875000 53.821007
52.150002 53.877281
51.500000 53.572002
50.700001 52.161690
50.075001 52.715717
49.674999 53.070595
49.924999 53.181160
49.849998 53.212372
49.174999 53.433075
48.849998 53.297276
48.450001 53.495033
48.150002 53.540413
47.875000 53.771446
47.924999 53.692673
48.075001 53.536221
48.075001 53.520988
47.250000 53.559357
46.025002 53.983196
45.474998 54.391483
46.750000 55.184265
50.674999 56.010262
56.700001 56.712074
59.924999 57.372726
59.400002 57.755936
55.924999 57.738750
51.700001 57.132454
49.724998 56.590988
50.099998 55.898933
50.650002 55.294884
50.700001 54.804539
50.174999 54.496143
49.599998 54.122631
49.099998 53.850021
48.549999 53.947933
48.299999 53.722523
47.799999 53.607483
47.575001 53.573006
47.400002 53.448883
47.299999 53.655167
46.900002 53.657284
47.099998 53.658825
47.025002 53.313599
46.875000 53.457478
47.000000 53.414040
47.174999 53.481304
46.924999 53.530392
46.799999 53.516735
46.799999 53.605728
46.900002 53.670685
47.525002 53.916004
48.724998 54.194012
50.325001 54.941177
52.674999 55.882332
57.599998 56.618706
54.099998 57.156143
50.224998 57.152554
48.775002 57.248890
49.075001 56.379101
50.325001 55.744293
51.525002 55.429413
51.750000 54.952206
51.424999 54.702877
50.250000 54.421947
49.200001 54.365349
48.400002 54.126129
47.750000 53.753620
47.599998 53.481743
47.375000 53.382275
47.650002 53.507595
47.025002 53.450619
47.150002 53.409035
47.099998 53.329212
46.900002 53.270947
47.250000 53.178947
47.500000 53.260239
47.099998 53.270084
47.325001 53.277275
48.200001 53.480442
49.924999 53.579243
51.625000 53.799789
52.049999 54.109184
50.924999 54.681358
49.825001 54.950516
49.700001 55.542793
50.924999 55.975060
52.549999 56.241066
53.500000 56.187820
53.000000 55.753124
52.349998 55.435856
51.299999 54.808475
50.724998 54.597973
50.075001 54.345387
49.825001 54.062080
49.250000 54.053226
48.750000 53.947807
48.450001 53.969822
48.099998 53.886932
47.924999 53.974873
47.924999 53.643227
48.025002 53.500130
47.875000 53.395695
47.400002 53.319477
47.424999 53.511238
47.349998 53.453281
47.275002 53.460461
47.575001 53.267784
49.075001 53.226112
50.875000 53.344147
52.924999 53.430286
53.400002 53.443680
52.924999 53.651367
51.700001 53.654507
50.474998 53.755764
48.799999 54.027580
47.500000 54.225956
47.000000 54.816059
48.174999 55.246746
50.325001 55.660034
52.724998 55.912189
53.900002 55.997265
52.474998 55.663525
51.000000 54.875679
49.500000 54.597542
48.900002 54.295593
48.549999 54.174175
48.349998 54.036079
47.875000 53.836334
48.000000 53.888462
48.224998 53.926510
48.025002 53.904800
48.000000 53.641563
47.974998 53.696835
48.474998 53.836132
49.950001 53.739880
51.849998 53.669632
52.625000 53.618362
52.849998 53.729378
