45.099998 53.807762
45.799999 53.768650
46.125000 53.641159
46.125000 53.795490
46.125000 53.759701
46.049999 53.832531
46.224998 53.687778
45.900002 53.631603
45.799999 53.689564
45.299999 53.583427
45.275002 53.456493
45.450001 53.660713
53.049999 53.760292
71.199997 53.635048
85.449997 53.593128
85.449997 53.661488
81.099998 53.612411
65.224998 53.725037
53.375000 53.757759
46.974998 53.682682
43.075001 53.825806
41.450001 53.781822
43.025002 53.749722
45.950001 53.627338
44.299999 53.587490
42.549999 53.657368
42.224998 53.510456
43.525002 53.502190
44.325001 53.496151
44.750000 53.640190
43.700001 53.547398
41.674999 53.430183
40.375000 53.344650
40.549999 53.579094
41.275002 53.601761
42.525002 53.568829
44.325001 53.445831
45.000000 53.553978
45.375000 53.682392
44.924999 53.677155
44.775002 53.673332
46.500000 53.621063
57.549999 53.879791
74.900002 53.672787
84.550003 53.521706
78.824997 53.460922
65.074997 53.515514
52.924999 53.456402
46.450001 53.759609
43.900002 53.585072
43.250000 53.358727
44.724998 53.440929
47.450001 53.401966
49.525002 53.373528
49.750000 53.501213
48.299999 53.445961
45.799999 53.455112
44.000000 53.511276
43.325001 53.502789
43.724998 53.496593
44.525002 53.393116
45.525002 53.218632
46.049999 53.140770
46.424999 53.281853
46.474998 53.285866
46.299999 53.140354
46.299999 53.133114
45.875000 53.276272
46.849998 53.331268
55.849998 53.371410
72.300003 53.450184
82.099998 53.952991
77.349998 53.874649
64.675003 53.817467
53.174999 53.775738
46.549999 53.844238
43.650002 53.745796
43.125000 53.574997
45.125000 53.450329
48.575001 53.309872
50.700001 53.405270
50.599998 53.375938
48.375000 53.305054
45.625000 53.253323
43.849998 53.314514
43.599998 53.359180
43.724998 53.342304
44.400002 53.280506
45.000000 53.433319
45.525002 53.396412
45.625000 53.418953
45.700001 53.385921
45.700001 53.312340
45.849998 53.308117
45.724998 53.156593
45.599998 53.144970
47.650002 53.087002
59.599998 53.242615
77.699997 53.257225
85.550003 53.317371
81.525002 53.361263
68.425003 53.393303
56.875000 53.466164
51.150002 53.469864
47.924999 53.423084
45.599998 53.438423
45.000000 53.400131
47.150002 53.471149
49.450001 53.522980
50.575001 53.461853
49.325001 53.516193
46.750000 53.407413
44.750000 53.426983
43.724998 53.342308
43.775002 53.428944
44.150002 53.393219
44.924999 53.416622
45.349998 53.334743
45.525002 53.274990
45.700001 53.330334
45.224998 53.370728
45.224998 53.301254
45.150002 53.448463
45.325001 53.555901
45.099998 53.584835
46.075001 53.506996
54.375000 53.499660
71.849998 53.494312
85.525002 53.391449
84.324997 53.415333
72.574997 53.432766
59.924999 53.593929
52.650002 53.513630
48.775002 53.504505
45.825001 53.398888
44.400002 53.618675
45.375000 53.729610
47.775002 53.612659
49.424999 53.527302
48.924999 53.662922
46.549999 53.761902
44.525002 53.735184
43.400002 53.715683
43.500000 53.602493
44.125000 53.569359
44.474998 53.446220
44.575001 53.356350
44.625000 53.290756
44.674999 53.440804
44.799999 53.401871
44.900002 53.323982
44.799999 53.267128
44.875000 53.522514
45.150002 53.510990
45.174999 53.453094
44.924999 53.361362
47.349998 53.492332
59.650002 53.439484
78.574997 53.549347
85.599998 53.580051
81.849998 53.454021
68.675003 53.510483
57.575001 53.403252
51.049999 53.324993
47.075001 53.267868
45.000000 53.374619
44.400002 53.353569
46.025002 53.288727
48.349998 53.340359
49.250000 53.378044
48.400002 53.455025
46.349998 53.412258
44.625000 53.381039
43.825001 53.506695
43.700001 53.548923
44.200001 53.579739
44.875000 53.503281
45.150002 53.645386
45.650002 53.551193
45.625000 53.432961
45.575001 53.346672
45.549999 53.234215
45.174999 53.350052
44.924999 53.335636
44.924999 53.325119
45.099998 53.267960
45.424999 53.226246
53.424999 53.344242
69.949997 53.430351
82.375000 53.394249
80.199997 53.565811
67.724998 53.493111
54.599998 53.539009
46.650002 53.374592
43.325001 53.403027
43.150002 53.423782
45.299999 53.339966
48.950001 53.278801
51.525002 53.333118
51.174999 53.471714
49.099998 53.424435
46.275002 53.439411
44.500000 53.450336
43.849998 53.705704
44.150002 53.694168
44.825001 53.636269
45.349998 53.544529
45.575001 53.626019
45.849998 53.487572
45.825001 53.485489
46.000000 53.434486
45.825001 53.347786
45.974998 53.383465
45.724998 53.211590
45.900002 53.086147
51.724998 53.093555
67.625000 53.296879
82.949997 53.296833
84.050003 53.346275
72.400002 53.778194
58.099998 53.697594
49.450001 53.688251
45.700001 53.631947
44.275002 53.491905
44.549999 53.637085
46.200001 53.545128
48.950001 53.576973
50.224998 53.600216
49.375000 53.518215
46.950001 53.507858
44.724998 53.401333
43.549999 53.323589
43.424999 53.217369
44.075001 53.337761
44.674999 53.326668
45.500000 53.269089
45.525002 53.227074
45.450001 53.493279
45.250000 53.489651
45.174999 53.487003
45.099998 53.386112
45.325001 53.510399
44.924999 53.601109
44.924999 53.568348
49.750000 53.593922
65.625000 53.563107
82.849998 53.590096
85.675003 53.461353
76.550003 53.367393
62.525002 53.397774
52.474998 53.568386
48.349998 53.494987
46.424999 53.490898
44.674999 53.487915
45.349998 53.386776
47.424999 53.461399
49.200001 53.466385
49.400002 53.420544
47.799999 53.535530
45.099998 53.471004
43.424999 53.473396
43.099998 53.524628
43.450001 53.512527
44.325001 53.454220
45.200001 53.263229
45.500000 53.222790
45.599998 53.391197
45.700001 53.365673
45.075001 53.347042
44.950001 53.185009
44.924999 53.165703
45.000000 53.052654
44.724998 53.168064
45.150002 53.202816
50.950001 53.178699
68.000000 53.408493
84.949997 53.378296
85.550003 53.455208
77.699997 53.511349
63.025002 53.700760
53.025002 53.690559
48.674999 53.534679
46.450001 53.420910
45.025002 53.288395
46.000000 53.389599
48.200001 53.364506
50.674999 53.395664
50.799999 53.319450
48.650002 53.164864
45.875000 53.299438
43.775002 53.397655
43.375000 53.320908
43.549999 53.462807
44.599998 53.615849
45.200001 53.579109
45.724998 53.601772
46.275002 53.519356
46.224998 53.459209
46.125000 53.266865
46.075001 53.225449
45.299999 53.145741
45.299999 53.285484
49.700001 53.288513
65.250000 53.340202
80.949997 53.377934
83.400002 53.603382
72.375000 53.619492
58.049999 53.532288
48.075001 53.419167
43.650002 53.534515
42.500000 53.668186
43.924999 53.666790
47.400002 53.665768
50.825001 53.615536
51.500000 53.677841
50.099998 53.525398
47.424999 53.414135
44.849998 53.332932
43.724998 53.471581
43.599998 53.424335
44.375000 53.389858
44.799999 53.315208
45.474998 53.409164
45.700001 53.477737
46.025002 53.478313
45.900002 53.379772
45.599998 53.505768
45.400002 53.449284
46.150002 53.457542
55.150002 53.513050
73.800003 53.652519
85.400002 53.655350
83.974998 53.508980
70.824997 53.402149
57.075001 53.423145
49.075001 53.487942
45.500000 53.436279
43.875000 53.448048
44.474998 53.357681
46.775002 53.588604
49.700001 53.608704
50.174999 53.573895
48.875000 53.449532
46.625000 53.556683
44.575001 53.486450
43.500000 53.534149
43.450001 53.568954
43.924999 53.693325
44.224998 53.635654
44.799999 53.494602
45.349998 53.391663
45.375000 53.316525
45.575001 53.410133
45.599998 53.379486
45.450001 53.307640
45.125000 53.255211
45.299999 53.216938
53.099998 53.337440
72.199997 53.375916
85.525002 53.305038
85.449997 53.451221
77.400002 53.607395
63.075001 53.622421
53.849998 53.633385
49.125000 53.492947
45.625000 53.489410
43.875000 53.387875
44.750000 53.214802
46.900002 53.137974
49.275002 53.230339
48.799999 53.248264
46.900002 53.112919
45.000000 53.113091
43.400002 53.410091
42.900002 53.478420
43.250000 53.478806
43.950001 53.380127
44.325001 53.506031
44.299999 53.498955
44.674999 53.543274
44.825001 53.575623
44.900002 53.549751
44.924999 53.530869
44.875000 53.418125
44.525002 53.632721
44.474998 53.442986
50.474998 53.502426
67.300003 53.446850
83.824997 53.455765
85.074997 53.462269
73.675003 53.467022
59.200001 53.519966
49.974998 53.558613
45.575001 53.487858
43.599998 53.634132
43.099998 53.740891
44.924999 53.719845
47.424999 53.704491
48.724998 52.159431
48.125000 52.565632
45.775002 52.713654
43.450001 52.821693
42.224998 52.851063
42.500000 53.070415
42.875000 53.131550
43.525002 53.126686
44.275002 53.222095
44.424999 53.192776
44.625000 53.319813
44.549999 53.363045
44.625000 53.345123
44.400002 53.480480
44.075001 53.430828
46.474998 53.493553
58.849998 53.539330
76.425003 53.721176
84.125000 53.705456
76.650002 53.545547
62.750000 53.428844
51.250000 53.442623
45.750000 53.551640
42.674999 53.482769
42.200001 53.333542
43.700001 53.472027
46.599998 53.672058
48.450001 53.768566
48.075001 53.690571
46.375000 53.584167
44.099998 53.654942
42.700001 53.855034
42.325001 53.852638
42.750000 53.801407
43.500000 53.912453
43.974998 53.845066
44.325001 53.647442
44.575001 53.503212
44.474998 53.348465
44.799999 53.433441
44.424999 53.396500
44.424999 53.320065
44.174999 53.264275
45.674999 53.223553
56.224998 53.342274
74.650002 53.428917
85.525002 53.393200
81.775002 53.515564
68.250000 53.456436
56.099998 53.611195
50.099998 53.625191
46.799999 53.585926
44.599998 53.606747
43.575001 53.473507
45.049999 53.376266
47.150002 53.354771
48.275002 53.438042
47.474998 53.399860
45.650002 53.421467
43.924999 53.338280
42.700001 53.277573
42.549999 53.381699
42.924999 53.457699
43.275002 53.364727
43.849998 53.494785
44.474998 53.639194
44.650002 53.645626
44.825001 53.551365
44.700001 53.532047
44.799999 53.517944
44.974998 53.408695
44.575001 53.328960
45.325001 53.270760
54.674999 53.376732
72.949997 53.355110
85.625000 53.388813
84.000000 53.314445
72.199997 53.260178
59.549999 53.467960
52.250000 53.520649
48.424999 53.460152
45.650002 53.465473
44.400002 53.419880
45.549999 53.485561
48.049999 53.533501
49.549999 53.519005
49.174999 53.508434
47.575001 53.401752
45.424999 53.323898
44.075001 53.217590
44.025002 53.436886
44.349998 53.399010
45.049999 53.321896
45.625000 53.265610
46.075001 53.125568
45.950001 53.270760
46.049999 53.277775
45.799999 53.233410
46.099998 53.250511
46.275002 53.312462
46.000000 53.357685
45.799999 53.143295
50.924999 53.135258
65.800003 53.277828
80.675003 53.233452
83.400002 53.201057
73.250000 53.177414
59.375000 53.308601
49.875000 53.305389
45.650002 53.352524
44.250000 53.287960
45.075001 53.339798
48.049999 53.427116
50.650002 53.391884
51.750000 53.366177
50.900002 53.495842
48.250000 53.392567
46.025002 53.416149
44.750000 53.383877
44.599998 53.409813
44.500000 53.280293
45.200001 53.235249
46.250000 53.103413
46.474998 53.056675
46.750000 53.121525
46.650002 53.119373
46.250000 53.068321
45.924999 52.981579
47.325001 52.918274
57.325001 53.119469
75.250000 53.216827
85.375000 53.188927
80.724998 53.366482
67.275002 53.397110
54.599998 53.468941
47.900002 53.719288
44.750000 53.803040
44.075001 53.715729
45.049999 53.454082
47.674999 53.164177
49.724998 53.101021
49.875000 53.252846
48.599998 53.264694
46.200001 53.223862
44.200001 53.194061
43.224998 51.687935
43.474998 52.221516
44.075001 52.413025
44.625000 52.602276
44.950001 52.789879
45.224998 53.075237
45.150002 53.234024
45.174999 53.152000
45.500000 53.141617
44.974998 53.183517
47.375000 53.164612
59.525002 53.150814
78.175003 52.843876
85.599998 53.114651
81.525002 53.163837
67.949997 53.249207
55.900002 53.311520
50.000000 53.356995
46.825001 53.390186
44.325001 53.414410
43.924999 53.333126
45.750000 53.471725
48.099998 53.325485
49.400002 53.367188
48.424999 53.348145
46.349998 53.284763
44.325001 53.337471
43.125000 53.276981
43.150002 53.232830
43.650002 53.151123
44.299999 53.289410
44.625000 53.291382
45.049999 53.243340
45.174999 53.208282
45.174999 52.984772
45.325001 53.118523
45.525002 53.067699
45.325001 53.030609
46.599998 53.250935
55.724998 53.263294
73.400002 53.321800
85.500000 53.315018
83.224998 53.260590
70.800003 53.319828
58.575001 53.264099
51.224998 53.223427
47.299999 53.144268
45.400002 53.234924
45.349998 53.251617
47.575001 53.214317
50.150002 53.187099
51.075001 53.068272
50.025002 53.129978
47.700001 52.977108
45.325001 52.865536
44.099998 52.982014
44.099998 52.968067
44.724998 53.056850
45.125000 53.121647
45.625000 53.020504
45.650002 53.045647
45.650002 52.965027
45.674999 52.906197
45.775002 52.863262
45.424999 52.980354
45.250000 53.016338
49.150002 53.042599
62.875000 53.061768
78.599998 52.976803
82.474998 53.112705
73.349998 53.063454
59.974998 52.928551
50.299999 53.028011
44.924999 53.199554
43.250000 53.225800
44.424999 53.146000
47.325001 53.137238
50.500000 53.130833
51.450001 53.126167
49.825001 53.023804
46.974998 52.998573
44.625000 53.079113
43.650002 53.038933
43.575001 53.059097
43.825001 52.974854
44.400002 52.913361
44.700001 52.917965
44.849998 52.921326
45.000000 52.973255
45.000000 53.060638
45.250000 53.173893
44.900002 53.207077
44.900002 53.231289
48.700001 53.199474
62.799999 53.176262
79.150002 53.010883
83.474998 52.939663
74.574997 52.887684
61.275002 53.097145
52.200001 53.151054
47.875000 53.140926
45.424999 53.133526
44.724998 53.029179
45.900002 53.101452
48.525002 53.055241
49.799999 53.070999
49.125000 53.131969
47.125000 53.275433
44.575001 53.281178
43.325001 53.186417
43.174999 53.067772
43.299999 53.080139
43.724998 52.940731
44.275002 52.888462
44.500000 52.850315
44.500000 52.970905
44.250000 52.959965
44.400002 52.902500
44.799999 52.959518
44.599998 52.803211
44.424999 52.887054
44.599998 52.898762
47.525002 52.808350
60.299999 53.088718
77.849998 53.243866
85.224998 53.258144
78.349998 53.268559
65.324997 53.226688
55.250000 53.245598
50.525002 53.012012
47.825001 52.940487
45.825001 52.838806
45.950001 52.913033
47.700001 52.917725
49.599998 52.970627
49.875000 53.009239
48.474998 53.136383
46.174999 53.229176
44.799999 53.148457
44.025002 53.139030
43.900002 53.330067
44.450001 53.222092
44.924999 53.242245
45.400002 53.158001
45.474998 53.145992
45.625000 51.702335
45.674999 51.935143
45.724998 52.154541
45.599998 52.265190
45.400002 52.543861
45.200001 52.549332
46.650002 52.701759
56.875000 52.813004
74.199997 52.795246
85.000000 52.831757
80.925003 52.858406
67.800003 52.927334
55.349998 53.175560
48.125000 53.257771
45.200001 53.169331
44.674999 53.104782
46.625000 53.107151
49.325001 53.108879
51.075001 53.011185
50.900002 52.939884
49.049999 53.135242
46.299999 53.178856
44.250000 53.161217
43.575001 53.098858
43.575001 53.102825
44.099998 53.204685
44.625000 53.130581
44.825001 53.076504
45.224998 52.938072
45.325001 53.034954
45.500000 53.204628
45.424999 53.229504
45.224998 53.148697
45.099998 53.040241
44.974998 52.961090
46.775002 52.853840
58.150002 52.924000
76.650002 52.876251
85.500000 52.989838
81.800003 52.973778
67.349998 53.011543
54.200001 53.039101
47.099998 52.960262
44.174999 53.051155
44.375000 53.068012
45.525002 53.030838
48.549999 53.102665
50.500000 53.056129
50.525002 53.071648
48.275002 53.132442
45.474998 53.127342
43.525002 53.123619
42.700001 52.922985
43.049999 52.875511
43.674999 53.038776
44.200001 53.058979
44.849998 53.024242
44.974998 53.048370
44.424999 52.967022
44.575001 52.808693
44.700001 52.940536
44.875000 52.937798
45.025002 52.836842
44.900002 52.961079
45.000000 53.051746
49.200001 53.068443
64.375000 53.130108
82.474998 53.175114
85.574997 53.158482
78.224998 52.948425
63.299999 52.993034
52.349998 52.926632
47.750000 53.026611
45.700001 53.050098
44.900002 52.968281
45.450001 53.007530
47.875000 53.135136
50.000000 53.178780
50.025002 53.111679
48.224998 52.963749
45.950001 53.053696
44.150002 53.020390
43.424999 52.897125
43.500000 52.906120
44.049999 52.962154
44.549999 53.052536
44.974998 52.920582
45.424999 52.873756
45.450001 52.839584
45.549999 52.913597
45.174999 52.868660
45.349998 52.835857
45.400002 52.910881
45.049999 52.767712
49.775002 52.910625
64.949997 53.014923
80.949997 53.041565
83.925003 53.258930
72.775002 53.219654
57.500000 53.289951
46.974998 53.192814
42.275002 53.220879
42.025002 53.142406
44.299999 53.035648
48.299999 52.957737
51.224998 52.950348
52.224998 53.142879
50.250000 53.085476
47.299999 53.093063
44.875000 53.098598
43.750000 53.201595
43.474998 53.227291
44.400002 53.147083
44.825001 53.088543
45.575001 53.144779
45.724998 53.284782
45.799999 53.238525
45.750000 53.254242
45.599998 53.117275
45.799999 53.116272
45.549999 52.967094
45.375000 52.907707
47.200001 52.814880
59.650002 53.093483
78.349998 53.148384
85.425003 53.138973
81.150002 53.132103
66.675003 53.028133
54.299999 53.199642
47.775002 53.027946
45.174999 53.051075
44.450001 53.117435
46.000000 53.165863
48.424999 53.250694
50.950001 53.164165
51.174999 53.150494
53.924999 53.288948
58.474998 53.340519
59.200001 53.378162
56.724998 53.455112
53.200001 53.610233
49.599998 53.723450
46.375000 53.756603
45.049999 53.780792
43.349998 53.798447
43.525002 52.574360
47.424999 53.016899
47.224998 53.290409
44.900002 53.638470
41.299999 53.892490
38.150002 53.929451
39.599998 53.857468
53.174999 53.854408
72.125000 53.852180
80.625000 53.850555
73.125000 53.849365
58.750000 53.947453
48.150002 54.167484
44.174999 54.328072
44.299999 54.247353
46.974998 54.336884
48.700001 54.303272
49.974998 54.427174
50.625000 54.319683
51.299999 54.241241
40.724998 54.332424
38.099998 54.250534
34.625000 54.190769
35.950001 54.048187
39.525002 54.142048
43.174999 54.012630
45.500000 53.769737
46.500000 53.790382
46.575001 53.558052
46.500000 53.586407
46.650002 53.508141
48.424999 53.500496
52.724998 53.593884
59.924999 53.662033
69.750000 53.860210
85.025002 53.955372
85.175003 53.925869
85.125000 54.102253
84.800003 53.983585
73.224998 53.995934
55.575001 53.905991
42.724998 53.790871
35.500000 53.756329
34.474998 53.582680
37.325001 53.455944
42.125000 53.313961
44.924999 53.507221
46.700001 53.747223
45.924999 53.674992
44.349998 53.523312
43.625000 53.511574
43.325001 53.552483
43.775002 53.532864
44.474998 53.419586
44.924999 53.534824
45.150002 53.618935
45.049999 53.630836
45.424999 53.639530
45.450001 53.596394
45.200001 53.564903
45.174999 53.442970
45.750000 53.353977
52.174999 53.338505
70.099998 53.426167
84.900002 53.391193
84.949997 53.415142
81.750000 53.432625
71.125000 53.445385
65.099998 53.702087
61.825001 53.790489
58.200001 53.855007
54.349998 54.100010
52.150002 54.179863
51.450001 54.238152
49.099998 54.231205
47.174999 54.127186
44.224998 54.051266
41.174999 53.896896
39.025002 53.685272
37.299999 53.629776
36.674999 53.638756
37.599998 53.546341
39.950001 53.478905
42.849998 53.479164
43.924999 53.479347
43.625000 53.528961
42.924999 53.515690
42.174999 53.456532
42.200001 53.611267
41.700001 53.724205
42.275002 53.707676
48.750000 53.695606
66.474998 53.637318
84.449997 53.644260
85.175003 53.500885
74.199997 53.396244
60.000000 53.319874
51.549999 53.511528
47.750000 53.453491
47.025002 53.510098
49.049999 53.600883
55.075001 53.964024
63.150002 54.278530
64.650002 54.409119
58.700001 54.454945
49.974998 54.488396
43.275002 54.364365
39.174999 54.372807
38.200001 54.378967
38.250000 54.235027
38.375000 54.080490
37.924999 53.819267
37.349998 53.628616
37.650002 53.439991
39.250000 53.401279
40.325001 53.323551
40.849998 53.316292
40.549999 53.261524
40.400002 53.122593
41.025002 53.219105
48.474998 53.289547
66.599998 53.291481
83.300003 53.441334
83.400002 53.402256
70.724998 53.472698
57.200001 53.524113
48.650002 53.413197
43.974998 53.431202
41.299999 53.196949
42.125000 53.174419
47.325001 53.108498
55.174999 53.357262
60.275002 53.538818
59.875000 53.671326
54.400002 53.916473
48.250000 53.897476
43.325001 54.032051
41.400002 54.080788
40.974998 54.017399
40.200001 54.070091
39.349998 54.059074
39.525002 53.952068
39.875000 53.873978
40.799999 53.767502
42.424999 53.739269
43.924999 52.184814
44.025002 52.435715
42.250000 52.618839
40.049999 52.950405
40.049999 53.043964
45.849998 53.161724
63.299999 53.247665
81.375000 53.310394
84.925003 53.405655
74.900002 53.475178
61.474998 53.426960
53.025002 53.639168
48.674999 53.744560
45.400002 53.722530
43.724998 53.706448
46.224998 53.744194
51.900002 53.920181
56.150002 53.999138
56.349998 54.056770
54.025002 54.098831
49.000000 54.080051
44.825001 54.066338
42.075001 54.105812
41.724998 54.035664
42.250000 53.885506
43.625000 53.973835
44.575001 53.889858
44.224998 53.729614
43.025002 53.810577
42.049999 53.671753
41.525002 53.718868
42.125000 53.703777
42.900002 53.643288
43.724998 53.599136
44.325001 53.467953
49.700001 53.471169
64.525002 53.473515
79.574997 53.574184
81.474998 53.499218
71.025002 53.493988
57.799999 53.490170
49.650002 53.388428
46.099998 53.462605
44.674999 53.516743
46.224998 53.457298
50.775002 53.760265
55.674999 54.030865
56.775002 54.129402
54.150002 54.201321
49.849998 54.303288
46.000000 54.229263
43.849998 54.026802
43.075001 53.879040
42.974998 53.771194
43.075001 53.791443
42.950001 53.657787
42.500000 53.560238
42.400002 53.538525
42.250000 53.225796
42.825001 53.343914
43.825001 53.331154
44.424999 53.321850
45.125000 53.265575
44.775002 53.273987
44.849998 53.379078
48.349998 53.356819
62.424999 53.390064
78.800003 53.463802
84.000000 53.369183
75.099998 53.300121
61.200001 53.299198
52.375000 53.446960
49.450001 53.406364
49.474998 53.327259
50.825001 53.467438
52.575001 53.569748
54.150002 53.792858
54.150002 53.906216
52.200001 53.939468
48.950001 54.112175
45.549999 54.089783
43.224998 54.073452
41.900002 54.061520
41.700001 54.003334
41.674999 53.960876
41.924999 53.731968
41.799999 53.564892
42.900002 53.442963
44.450001 53.551891
44.099998 53.482952
42.549999 53.482113
41.875000 53.481503
41.799999 53.382095
42.575001 53.457989
43.599998 53.414417
44.325001 53.333134
48.450001 53.471729
61.875000 53.622364
77.900002 53.633339
81.949997 53.641357
72.824997 53.597729
59.099998 53.615356
50.224998 53.479794
46.674999 53.380848
45.525002 53.407593
47.349998 53.575554
50.575001 53.797092
54.474998 53.859829
56.299999 54.054054
54.424999 54.096848
50.700001 54.177555
46.599998 54.088024
43.625000 54.072159
42.150002 54.209019
41.349998 54.061508
42.125000 53.953846
43.075001 53.875275
44.474998 53.768452
45.150002 53.789444
43.950001 53.606846
42.549999 53.473579
41.900002 53.376316
42.575001 53.453766
43.650002 53.411335
44.375000 53.429844
46.299999 53.443356
56.599998 53.453213
73.074997 53.608849
81.574997 53.574001
75.925003 53.499084
63.000000 53.642330
51.900002 53.697395
47.125000 53.688107
45.525002 53.681324
46.700001 53.923771
49.750000 54.001759
53.200001 54.157639
54.950001 54.271404
53.700001 54.304958
50.200001 54.428402
46.575001 54.419544
44.049999 54.363594
42.875000 54.421726
42.700001 54.167271
42.849998 54.129997
42.900002 52.618420
43.174999 52.801666
43.525002 53.182800
44.424999 53.411488
44.474998 53.578392
45.099998 53.601254
45.375000 53.568451
45.349998 53.594002
45.325001 53.464203
45.549999 53.468430
49.200001 53.422039
63.775002 53.586094
79.599998 53.507912
84.199997 53.500332
74.625000 53.593761
61.625000 53.464031
53.000000 53.666225
50.474998 53.665352
50.799999 53.714195
51.599998 53.947762
53.349998 54.167709
55.250000 54.229271
55.549999 54.274208
53.799999 54.257530
50.625000 54.195873
46.974998 54.101395
44.724998 53.933479
43.450001 53.810928
43.049999 53.869926
42.125000 53.715069
42.174999 53.651524
42.125000 53.605145
42.599998 53.571297
43.325001 53.695030
44.224998 53.587418
45.049999 53.508881
45.575001 53.649479
45.650002 53.752090
45.575001 53.678547
49.325001 53.674351
63.125000 53.720764
78.750000 53.705154
82.099998 53.545330
72.474998 53.527645
59.174999 53.514729
50.450001 53.653748
46.599998 53.557289
45.700001 53.437408
47.924999 53.448875
53.150002 53.556206
57.875000 53.782974
58.599998 53.899002
55.700001 53.934200
51.275002 54.108330
47.275002 54.086979
45.099998 54.170357
44.799999 54.132248
44.599998 54.252872
44.924999 54.093517
44.974998 53.927734
44.150002 53.806740
43.025002 53.718426
42.349998 53.703453
41.700001 53.593571
41.799999 53.562847
41.599998 53.441467
42.900002 53.451832
47.125000 53.508884
62.075001 53.501041
80.224998 53.445835
85.574997 53.553986
77.650002 53.484478
63.924999 53.532707
54.450001 53.567905
49.974998 53.544117
47.125000 53.526760
45.075001 53.415131
46.299999 53.432617
50.775002 53.742249
57.075001 53.819798
59.674999 53.876400
56.875000 54.066143
51.775002 54.105671
46.750000 54.332436
43.875000 54.349503
42.650002 54.213520
42.625000 54.114269
43.650002 54.239758
44.125000 54.083946
44.025002 54.069183
43.075001 53.959450
42.325001 53.780403
43.174999 53.649731
44.525002 53.504879
44.500000 53.399162
42.799999 53.272526
43.575001 53.378017
55.450001 53.356049
75.875000 53.389500
85.599998 53.413906
82.324997 53.431721
68.699997 53.494205
57.025002 53.539810
51.625000 53.523609
47.775002 53.660225
43.599998 53.759933
42.025002 53.733749
44.224998 53.714638
48.049999 53.651211
52.200001 53.753357
56.000000 53.778423
57.000000 53.796719
55.125000 53.859554
50.950001 54.053856
47.075001 54.096703
44.724998 54.127972
43.174999 54.051838
42.849998 54.095222
42.700001 54.077419
42.474998 53.866501
41.775002 53.613609
41.049999 53.676434
40.275002 53.722282
39.775002 53.656788
40.049999 53.658463
40.575001 53.610210
45.575001 53.574997
62.250000 53.450329
80.824997 53.359348
84.500000 53.292946
73.025002 53.491875
58.200001 53.439148
48.825001 53.252232
44.875000 53.214764
42.875000 53.484299
42.799999 53.532578
45.674999 53.567810
50.974998 53.494568
56.775002 53.787472
60.349998 53.852806
58.875000 53.999443
54.000000 54.106472
48.299999 54.135101
44.075001 54.057045
42.275002 53.901115
42.075001 52.401886
42.625000 52.396233
43.375000 52.837421
44.049999 52.961498
44.025002 53.101536
43.549999 53.203743
42.474998 53.674171
40.924999 53.621677
40.150002 53.533886
39.924999 53.469810
40.325001 53.571480
46.900002 53.497246
65.699997 53.542027
84.650002 53.475750
85.650002 53.377899
76.199997 53.405441
61.599998 53.326591
52.375000 53.269035
48.150002 53.424950
45.049999 53.489262
43.349998 53.387760
44.450001 53.313675
47.424999 53.358570
49.400002 53.292374
49.000000 53.343029
46.724998 53.429470
44.650002 53.393604
44.950001 53.565342
48.150002 53.591721
52.400002 53.808895
54.700001 53.967396
53.474998 54.033604
49.825001 54.131397
46.424999 54.054340
44.025002 53.998093
42.775002 53.957043
42.549999 53.976566
42.900002 54.040291
43.974998 53.987843
44.299999 53.850609
44.200001 53.948364
44.349998 53.871273
52.825001 53.815002
70.300003 53.674980
83.175003 53.770702
79.775002 53.840561
66.074997 53.792595
53.799999 53.856544
48.500000 53.705296
46.375000 53.743351
44.500000 53.573208
44.349998 53.449028
46.174999 53.358395
48.875000 53.490166
50.049999 53.239983
48.599998 53.205830
45.900002 53.279858
43.924999 53.234932
42.724998 53.350578
42.724998 53.336021
43.375000 53.325401
45.325001 53.515564
48.400002 53.654350
53.275002 53.854607
56.549999 54.000759
56.275002 54.057949
52.650002 54.149166
48.299999 54.166267
45.349998 53.980827
43.599998 53.894966
46.200001 53.931255
60.299999 53.759827
77.900002 53.585232
82.625000 53.556763
71.574997 53.733906
55.924999 53.764233
45.849998 53.687408
42.099998 53.581860
40.750000 53.653259
41.375000 53.754856
43.724998 53.680557
47.150002 53.675812
49.200001 53.523911
49.099998 53.462532
46.825001 53.219814
44.125000 53.191109
42.375000 53.170155
42.400002 53.303307
42.775002 53.301521
44.125000 53.349701
44.924999 53.285904
45.674999 53.536217
46.775002 53.520988
49.349998 53.608837
53.900002 53.722427
57.650002 54.003250
56.974998 54.109249
53.000000 54.236088
47.700001 54.180222
43.549999 53.991013
43.924999 53.902397
57.200001 53.788242
77.525002 53.704926
85.625000 53.941002
80.199997 53.915379
65.349998 53.847202
52.700001 53.698479
47.349998 53.639420
45.299999 53.596313
44.025002 53.614330
43.724998 53.627483
45.250000 53.538120
47.724998 53.670818
48.799999 53.569744
47.250000 53.545460
44.750000 53.478256
43.150002 53.379726
42.400002 53.406776
42.924999 53.327560
43.849998 53.269745
44.724998 53.227551
46.275002 53.345192
49.049999 53.332088
53.700001 53.520447
56.650002 53.806358
55.625000 53.916065
51.974998 54.144573
47.849998 54.113434
44.525002 53.892792
42.424999 54.078110
44.525002 54.064922
58.575001 54.104782
77.875000 53.985435
85.599998 53.749886
77.074997 53.726414
61.525002 53.560848
49.750000 53.440010
44.025002 53.401291
41.375000 53.471992
41.000000 53.424637
43.450001 53.439556
47.450001 53.351482
50.000000 53.287205
49.775002 53.388733
47.599998 53.363873
44.799999 51.910831
43.174999 52.433670
42.400002 52.666824
42.575001 52.886467
43.400002 53.096256
44.150002 53.150410
44.549999 53.239414
45.275002 53.106453
46.849998 53.108372
49.724998 53.208729
53.875000 53.430408
55.400002 53.592201
53.750000 53.759773
50.150002 53.783108
49.250000 53.701176
60.575001 53.839298
79.775002 53.890636
85.724998 53.878616
81.500000 54.067764
65.675003 54.057373
51.974998 53.950829
43.875000 53.774113
39.525002 53.694618
37.775002 53.587116
38.974998 53.459179
42.450001 53.365807
45.575001 53.297661
47.349998 53.396362
46.250000 53.369438
44.349998 53.300308
42.799999 53.249855
42.250000 53.114075
42.849998 53.212891
43.599998 53.186058
44.299999 53.166473
44.549999 53.201656
44.325001 53.227337
44.549999 53.246075
45.750000 53.259754
50.299999 53.467651
57.099998 53.668869
60.174999 53.716763
59.849998 53.949635
56.424999 54.218552
54.375000 54.167431
63.650002 54.031155
79.500000 54.080135
85.699997 53.917965
77.275002 53.799610
63.299999 53.861656
53.000000 53.857471
47.974998 53.656498
44.474998 53.707737
41.924999 53.794609
40.825001 53.709576
42.849998 53.696991
45.150002 53.786766
46.174999 53.703850
44.950001 53.544373
43.150002 53.427982
41.799999 53.244080
41.250000 53.357250
42.025002 53.340889
42.900002 53.378433
43.825001 53.306877
44.349998 53.353607
44.625000 53.437191
44.700001 53.448715
45.825001 53.407650
49.525002 53.575596
54.700001 53.846603
57.799999 53.994919
56.799999 54.103168
53.150002 54.132690
49.125000 54.104759
53.525002 54.034893
69.574997 53.983906
83.849998 53.847733
82.474998 53.896782
68.449997 53.734665
52.150002 53.665829
42.575001 53.516624
38.525002 53.308777
38.000000 53.354992
39.750000 53.438202
43.325001 53.399975
46.400002 53.569996
47.575001 53.694080
46.700001 53.636200
44.525002 53.544479
42.924999 53.428062
42.575001 53.442055
42.349998 53.353306
43.275002 53.189579
43.674999 53.366959
44.325001 53.397457
44.450001 53.370239
44.625000 53.300892
44.825001 53.250282
45.275002 53.114384
47.200001 53.262592
51.549999 53.519199
56.924999 53.459095
59.099998 53.811058
63.450001 53.919498
76.150002 54.048115
85.699997 54.141994
84.175003 54.062073
71.425003 54.102703
57.325001 54.033398
49.375000 53.883854
45.750000 53.774708
43.400002 53.794010
41.900002 53.659660
42.400002 53.611084
44.650002 53.476669
45.625000 53.378574
45.150002 53.455421
43.924999 53.462021
42.924999 53.417362
42.325001 53.533203
42.525002 53.617748
43.049999 53.629971
43.775002 53.539936
44.250000 53.474224
44.450001 53.426266
44.500000 53.341789
44.549999 53.280125
44.099998 53.185646
43.575001 53.314606
43.650002 53.309769
43.900002 53.306240
44.099998 53.254189
44.724998 53.315151
51.974998 53.557568
74.224998 53.586048
85.650002 53.656319
85.574997 53.905521
85.574997 53.938965
81.775002 54.012852
64.875000 54.116249
53.575001 54.142242
46.325001 54.111729
42.575001 54.039986
43.200001 53.987621
46.650002 52.514500
50.599998 52.923733
51.474998 53.024494
49.075001 53.147514
44.000000 53.237293
40.150002 53.203869
38.924999 53.327904
39.750000 53.368954
41.875000 53.349434
44.200001 53.483627
45.799999 53.631042
46.250000 53.738640
46.025002 53.619247
45.474998 53.581589
45.224998 53.554108
45.075001 53.435089
45.325001 53.348225
45.400002 53.235352
45.599998 53.251930
50.099998 53.264023
67.150002 53.520245
85.599998 53.608295
85.625000 53.672554
83.025002 53.867893
68.324997 53.911495
56.174999 53.943325
49.075001 54.016029
45.125000 54.019615
44.349998 54.121193
45.924999 54.195328
48.849998 54.100998
50.549999 54.131107
49.900002 53.905685
47.150002 53.790646
43.049999 53.558250
39.424999 53.586548
37.775002 53.508247
38.299999 53.401619
39.950001 53.422752
41.474998 53.636093
42.650002 53.643372
43.799999 53.599197
44.424999 53.467999
44.474998 53.570164
44.450001 53.496284
44.549999 53.541325
44.400002 53.574196
44.299999 53.449749
46.224998 53.457886
58.299999 53.364861
77.449997 53.296967
85.574997 53.296894
83.525002 53.395802
70.875000 53.616432
61.125000 53.777454
56.599998 54.092884
54.150002 54.125191
50.924999 54.198242
48.349998 54.152603
48.325001 54.069813
49.200001 54.207306
49.049999 54.060257
47.924999 54.051899
45.674999 53.946835
43.075001 53.820675
40.750000 53.728596
38.775002 53.562439
38.400002 53.441170
38.525002 53.352665
40.099998 53.436504
41.549999 53.398735
43.049999 53.222733
43.700001 53.193241
43.950001 53.270664
43.875000 53.327183
44.000000 53.368427
43.724998 53.299572
43.599998 53.447235
45.349998 53.505527
56.250000 53.548073
76.025002 53.579121
85.625000 53.552303
85.650002 53.582211
76.875000 53.554562
65.699997 53.633335
59.224998 53.740311
55.700001 54.016296
52.099998 54.217731
49.474998 54.216305
49.125000 54.116306
50.250000 54.043320
50.924999 54.138489
50.025002 54.158470
47.525002 54.123581
45.000000 54.246548
42.349998 54.088902
40.299999 53.973839
38.625000 53.889866
37.349998 53.680138
37.599998 53.675510
38.974998 53.523693
40.875000 53.412895
42.349998 53.332027
43.200001 53.322487
43.099998 53.315521
43.000000 53.359917
42.775002 53.293358
43.849998 53.145824
53.174999 53.285545
71.599998 53.288559
85.650002 53.389721
85.800003 53.760426
78.324997 53.932022
65.699997 54.205696
56.000000 54.355961
49.275002 54.317192
45.400002 54.338375
44.474998 54.304359
46.400002 54.180573
48.924999 54.090225
49.349998 54.073769
46.799999 53.962799
43.125000 53.832325
39.375000 53.737103
37.200001 53.667606
36.625000 53.666363
37.849998 53.665459
39.825001 53.565830
41.450001 53.740520
42.950001 53.620621
43.575001 53.632072
44.250000 53.739388
44.200001 53.669277
44.099998 53.618103
43.724998 53.481796
43.200001 53.382309
44.224998 53.408661
53.174999 53.576332
70.599998 53.500782
84.550003 53.594090
85.050003 53.662189
77.724998 53.711891
68.625000 53.896599
62.049999 53.932446
56.974998 53.958614
52.125000 52.740734
48.750000 52.989887
47.799999 53.270695
48.650002 53.376678
48.950001 53.651947
47.549999 53.753895
45.200001 53.580902
42.075001 53.454643
40.099998 53.560413
38.799999 53.588127
37.900002 53.509399
37.974998 53.501419
38.599998 53.396633
39.150002 53.320160
40.500000 53.412777
42.275002 53.430893
43.700001 53.345165
44.974998 53.480511
46.025002 53.529812
46.125000 53.466835
45.900002 53.420876
47.950001 53.337849
59.450001 53.425694
77.074997 53.341370
85.675003 53.279823
81.775002 53.333858
71.025002 53.521736
63.700001 53.757824
61.424999 53.781689
59.099998 53.997021
55.150002 54.253136
51.700001 54.390583
50.450001 54.292984
50.125000 54.023830
49.224998 54.173748
47.400002 54.134724
45.299999 54.106247
43.450001 53.986504
42.150002 53.849625
40.474998 53.749725
39.275002 53.577862
39.250000 53.452423
39.674999 53.360878
40.575001 53.442501
41.150002 53.403111
41.700001 53.423843
42.375000 53.340012
42.875000 53.377792
43.349998 53.454845
44.174999 53.412125
49.575001 53.380939
65.125000 53.556099
82.675003 53.584976
85.650002 53.606052
77.974998 53.621445
63.750000 53.880062
52.825001 53.870907
47.224998 53.666302
45.049999 53.615932
46.974998 53.628647
53.299999 53.934803
59.750000 54.158249
62.474998 54.271851
59.575001 54.255802
54.049999 54.293571
47.849998 54.321136
43.349998 54.192822
41.174999 54.000206
39.974998 54.008068
39.400002 53.815887
38.325001 53.873543
37.049999 53.816662
35.700001 53.973068
35.775002 53.938786
37.924999 53.715847
41.099998 53.652088
43.799999 53.605556
45.650002 53.720036
46.025002 53.605667
48.950001 53.571682
62.450001 53.645836
79.800003 53.798912
85.699997 53.861149
77.375000 53.807621
62.950001 53.818027
51.775002 54.023540
46.575001 54.025097
43.625000 54.026234
43.549999 54.076546
47.700001 54.113258
55.849998 54.189541
62.849998 54.096775
64.349998 54.029068
60.250000 53.979645
53.700001 53.597229
48.150002 53.713959
44.375000 53.848633
42.599998 53.749001
42.525002 53.676289
42.000000 53.672703
40.224998 53.670082
38.525002 53.569206
37.625000 53.644028
37.400002 53.748112
37.875000 53.675640
39.099998 53.474308
41.000000 53.376846
42.299999 53.404675
44.724998 53.326031
55.525002 53.268627
72.949997 53.226738
83.199997 53.344601
78.000000 53.331657
64.275002 53.173779
52.174999 53.256466
45.950001 53.118896
43.500000 53.265888
43.775002 53.323696
47.924999 53.316399
56.099998 53.706909
63.575001 53.892971
65.324997 54.028763
61.325001 54.127865
54.349998 54.150723
48.825001 54.117916
44.849998 54.044495
43.450001 53.990913
43.325001 53.902325
43.375000 53.936630
42.474998 53.763752
40.325001 53.687057
38.325001 53.532120
37.900002 53.419041
38.325001 53.484951
39.799999 53.434097
41.150002 53.347500
42.775002 53.432739
50.200001 53.395988
67.449997 53.468121
82.900002 53.421814
83.550003 53.585930
71.175003 53.557278
56.875000 53.437405
48.575001 53.349915
45.200001 53.236580
43.250000 51.867405
43.250000 52.253540
45.025002 52.485874
48.450001 52.754406
51.224998 53.148308
53.099998 53.386314
56.500000 53.560024
58.900002 53.637325
57.424999 53.891659
53.549999 53.928841
49.224998 53.906502
46.775002 53.939682
44.900002 53.815456
44.599998 53.823753
44.549999 53.631886
43.625000 53.491859
41.849998 53.290699
39.750000 53.391281
38.424999 53.365734
38.000000 53.297604
39.174999 53.247879
45.775002 53.360027
63.724998 53.441879
82.650002 53.452133
85.724998 53.360664
76.775002 53.541302
62.174999 53.475220
52.349998 53.525951
47.674999 53.661934
45.250000 53.563263
43.625000 53.540726
44.325001 53.425323
47.125000 53.242138
49.525002 53.157925
50.349998 53.294369
49.474998 53.295002
48.450001 53.344948
49.599998 53.381390
52.775002 53.407990
55.000000 53.674801
54.700001 53.820049
52.200001 53.827106
49.575001 53.931210
46.849998 53.858753
45.150002 53.904831
44.150002 53.839497
43.500000 53.989731
41.924999 53.851986
39.950001 53.504059
38.724998 53.299599
43.625000 53.199856
59.174999 53.423939
75.050003 53.389565
78.449997 53.413956
68.574997 53.431755
55.799999 53.345795
47.849998 53.382011
44.150002 53.358967
42.424999 53.292667
43.075001 53.442192
45.450001 53.551327
48.174999 53.532021
48.900002 53.468445
48.075001 53.372566
45.775002 53.352070
43.875000 53.188675
42.750000 53.069424
43.474998 53.031864
46.575001 53.301334
51.974998 53.596958
57.250000 53.763237
58.500000 53.884594
55.924999 53.874214
51.974998 53.916111
47.775002 53.847733
44.974998 53.698864
43.424999 53.837612
42.825001 53.889397
41.825001 53.778759
45.000000 53.648529
58.325001 53.504002
74.925003 53.497475
80.250000 53.294796
71.449997 53.245834
58.174999 53.210098
49.525002 53.233494
46.174999 53.250572
43.799999 53.114594
42.700001 53.114315
43.224998 53.213066
45.750000 53.334621
47.575001 53.373859
47.924999 53.303535
46.299999 53.450123
44.400002 53.408672
42.799999 53.378422
42.900002 53.356346
44.974998 53.538151
50.250000 53.621361
56.849998 53.583126
60.275002 53.555225
58.700001 53.534863
54.450001 53.668442
49.599998 53.568012
46.599998 53.544197
44.700001 53.526817
43.849998 53.514126
43.000000 53.504868
43.299999 53.498108
51.875000 53.394222
68.224998 53.516312
78.150002 53.456985
73.449997 53.463158
60.200001 53.517143
49.799999 53.754471
45.025002 53.680279
43.325001 53.428219
42.400002 53.244251
42.974998 53.159466
45.674999 53.295498
48.275002 53.295822
49.224998 53.147621
48.000000 53.138416
45.825001 53.230656
43.950001 53.297981
42.950001 53.297634
42.799999 53.247902
43.349998 53.261089
44.299999 53.171749
45.349998 53.304466
47.950001 53.401329
54.224998 53.620461
61.450001 53.829868
63.750000 53.834267
59.974998 53.837479
53.375000 53.790344
47.849998 53.854900
49.349998 53.852539
63.599998 53.850811
79.375000 53.651634
80.199997 53.506271
66.925003 53.548615
50.950001 53.530041
40.900002 53.467003
36.625000 53.569431
36.150002 52.110336
38.849998 52.480320
43.799999 52.799831
48.474998 52.884590
50.500000 52.946442
49.500000 52.892632
46.599998 52.853352
44.125000 52.874168
42.950001 53.087276
42.674999 53.143852
43.099998 53.135666
44.125000 53.129688
46.200001 53.026371
50.900002 53.247841
56.474998 53.409477
60.049999 53.527447
59.224998 53.811462
55.200001 54.018749
50.375000 54.021599
46.549999 54.122643
43.950001 53.948986
47.424999 53.822250
62.049999 54.026619
78.925003 53.779949
81.925003 53.550442
70.150002 53.580853
55.025002 53.504089
46.474998 53.448059
43.424999 53.357693
41.924999 53.291737
41.174999 53.392040
42.650002 53.366287
45.424999 53.347488
47.974998 53.482208
48.250000 53.333134
46.650002 53.372776
44.750000 53.352222
43.375000 53.287743
43.325001 53.339642
43.525002 53.179604
44.200001 53.062801
44.924999 53.027039
45.349998 53.099888
45.275002 53.153057
46.000000 53.241341
49.950001 53.305775
57.099998 53.600197
63.599998 53.765602
63.849998 53.886318
59.500000 53.875469
54.424999 54.065468
59.025002 53.956738
74.250000 53.976337
85.199997 53.990650
80.724998 53.951611
66.224998 53.873642
52.575001 53.668297
44.200001 53.518429
39.200001 53.409046
37.450001 53.477654
38.099998 53.428772
42.125000 53.393093
46.275002 53.317570
47.599998 53.163502
46.325001 53.298443
43.700001 53.297974
41.775002 53.248146
40.974998 53.409706
41.049999 53.280216
41.924999 53.334145
42.650002 53.324032
43.674999 53.267166
45.000000 53.324627
47.575001 53.267605
52.650002 53.423904
57.974998 53.488499
59.575001 53.634602
57.400002 53.790714
52.799999 53.805695
51.049999 53.618710
62.200001 53.581200
80.250000 53.702255
85.800003 53.642174
76.125000 53.499359
58.599998 53.593052
46.075001 53.611942
40.825001 53.576260
38.174999 53.500732
37.349998 53.445614
39.349998 53.454861
43.750000 53.362656
47.525002 53.295364
48.099998 53.196766
46.549999 53.322723
43.724998 53.315689
42.049999 53.261082
41.950001 53.221226
42.125000 53.093182
42.400002 53.197643
43.200001 53.026489
44.150002 53.099491
47.424999 53.350685
55.500000 53.534019
63.875000 54.063656
81.375000 54.549164
85.349998 54.755074
66.550003 54.657959
44.125000 54.240730
28.674999 54.035175
32.474998 53.835667
54.799999 53.887978
75.800003 53.876678
79.349998 53.868435
69.175003 53.862411
57.775002 53.858021
52.575001 53.953770
47.250000 53.875217
42.924999 53.718929
39.775002 53.802784
34.500000 53.863976
36.299999 53.809685
40.700001 53.869015
44.250000 54.011272
45.224998 53.966667
44.474998 53.736191
43.674999 53.666939
43.875000 53.616398
45.924999 53.678463
50.349998 53.674290
55.025002 53.819675
57.250000 53.826832
55.724998 53.733097
51.549999 53.813114
47.025002 53.772556
43.025002 53.644009
39.849998 53.896538
37.549999 53.833443
37.474998 53.787399
45.500000 53.654831
64.199997 53.607555
78.875000 53.573055
77.974998 53.448914
64.775002 53.457275
51.724998 53.364414
44.700001 53.445076
41.549999 52.019577
41.375000 52.315125
42.750000 52.629780
45.900002 52.661518
48.599998 52.882595
48.924999 52.994473
47.299999 53.076122
44.875000 53.135715
44.775002 53.278164
48.750000 53.431610
54.150002 53.593082
56.275002 53.661453
54.275002 53.760830
50.650002 53.585960
47.750000 53.458336
45.400002 53.464149
44.400002 53.567345
44.325001 53.494228
43.674999 53.292427
42.150002 53.244102
40.174999 53.307793
39.174999 53.354271
43.375000 53.388203
59.625000 53.313999
78.900002 53.457767
85.150002 53.562691
75.300003 53.589787
60.650002 53.609570
50.924999 53.475563
46.825001 53.476723
44.375000 53.279652
42.924999 53.234779
43.575001 53.152550
46.400002 52.894619
48.799999 53.003242
48.950001 53.033043
48.099998 53.054794
48.599998 53.367542
52.275002 53.595798
55.775002 53.613949
56.650002 53.676682
54.599998 53.920380
51.200001 53.850849
48.099998 53.899063
45.724998 53.835289
44.549999 53.739265
43.775002 53.669186
42.974998 53.519077
41.000000 53.409519
39.000000 53.280087
38.549999 53.334057
41.275002 53.323971
54.900002 53.316597
73.199997 53.261749
81.050003 53.221710
73.175003 53.340935
59.700001 53.378464
49.250000 53.306896
45.299999 53.452579
43.250000 53.410477
43.125000 53.181824
44.950001 53.311817
47.900002 53.258255
49.950001 53.318123
50.375000 53.262856
52.200001 53.321484
56.275002 53.413746
58.674999 53.580044
57.025002 53.503498
53.250000 53.497105
49.950001 53.492447
47.275002 53.686962
45.450001 53.680485
44.950001 53.675762
44.299999 53.573360
43.049999 53.647057
40.799999 53.552410
39.025002 53.483330
38.625000 53.432911
40.900002 53.445591
52.599998 53.504330
71.974998 53.398758
83.775002 53.321712
79.175003 53.265476
65.974998 53.422352
55.075001 53.388409
50.000000 53.215195
46.825001 53.187737
44.750000 53.167690
44.500000 53.301506
46.525002 53.349686
48.974998 53.285892
49.974998 53.437252
50.349998 53.399284
52.625000 53.569485
56.724998 53.693710
58.599998 53.734894
56.299999 53.814426
52.099998 53.724037
47.900002 53.658066
44.224998 53.510963
42.174999 53.552040
41.650002 53.483059
42.049999 53.284271
42.674999 53.337105
42.775002 53.375675
41.900002 53.354340
41.299999 53.338768
42.375000 53.277924
53.000000 53.431431
72.050003 53.493992
83.550003 53.539654
79.400002 53.572979
66.300003 53.547821
55.575001 53.578934
50.474998 53.453209
47.599998 53.262489
44.724998 53.172775
44.375000 53.305218
45.900002 53.302921
48.424999 53.350719
49.424999 53.286648
48.775002 53.338840
48.400002 53.475895
50.775002 53.526447
55.700001 53.662296
58.849998 53.909882
57.924999 53.942146
54.250000 54.064651
49.500000 53.956142
45.375000 53.827477
42.950001 53.733566
41.900002 53.566059
42.724998 53.443813
43.325001 53.453548
44.200001 53.411179
44.700001 53.380249
50.549999 53.407158
65.400002 53.426800
77.150002 53.342175
74.849998 53.428844
62.200001 53.492104
50.474998 53.389839
44.650002 53.364677
42.650002 53.346317
42.174999 51.947498
44.000000 52.311993
46.799999 52.627495
49.325001 52.907249
49.599998 52.962982
47.674999 53.003662
45.375000 52.983871
43.424999 53.117863
42.599998 53.166176
42.650002 53.250919
43.375000 53.213810
45.150002 53.483601
49.724998 53.532063
54.799999 53.715874
56.849998 53.751068
55.799999 53.974674
53.075001 53.989437
50.099998 53.950729
47.825001 53.873001
46.500000 54.014187
51.549999 54.018269
68.375000 53.971771
85.400002 53.838875
85.824997 53.741886
75.074997 53.819530
58.849998 53.678284
47.650002 53.624680
41.525002 53.585552
38.099998 53.458042
37.299999 53.513412
40.025002 53.504349
44.424999 53.398769
47.474998 53.519630
47.799999 53.657322
46.075001 53.757816
43.700001 53.633240
43.150002 53.591801
42.950001 53.561558
43.474998 53.440529
44.224998 53.352196
44.900002 53.238243
45.450001 53.352997
45.650002 53.337788
47.375000 53.376171
51.674999 53.503139
58.400002 53.595806
61.750000 53.811874
59.775002 53.920097
55.424999 53.949600
56.849998 54.169048
70.099998 54.131298
84.324997 54.103745
84.074997 54.083633
70.250000 54.167915
53.174999 54.031509
42.500000 53.783516
38.224998 53.602524
36.650002 53.420940
37.299999 53.535812
40.650002 53.471218
44.750000 53.473549
47.075001 53.376293
46.950001 53.602188
45.025002 53.618622
43.375000 53.630608
42.375000 53.490921
42.375000 53.586887
43.599998 53.706406
45.849998 53.694683
50.075001 53.686131
54.174999 53.729359
57.599998 53.909351
58.174999 53.892281
56.000000 53.879818
52.049999 53.870728
48.125000 53.913570
45.099998 53.895359
47.075001 53.783108
60.875000 53.800140
78.400002 53.713612
83.224998 53.699936
71.949997 53.689960
55.375000 53.633202
44.849998 53.690735
40.700001 53.584282
39.599998 53.605553
40.200001 53.621075
41.799999 53.731361
44.875000 53.613934
47.075001 53.478756
46.849998 53.380089
44.924999 53.209126
43.349998 53.331741
42.799999 53.272800
43.049999 53.229778
43.900002 53.198376
45.575001 53.175457
48.474998 53.307171
52.200001 53.502262
55.650002 53.644646
58.299999 53.798038
57.099998 53.860516
53.674999 53.906116
49.900002 53.840435
46.400002 53.990421
44.424999 53.901970
45.700001 53.886887
58.325001 53.875885
76.949997 53.719418
84.699997 53.704174
75.650002 53.594097
59.299999 53.563229
46.700001 53.441746
42.150002 53.353081
40.174999 53.436813
40.099998 53.448437
41.424999 53.407440
45.750000 53.575443
50.049999 53.500134
51.599998 53.593620
50.299999 53.612362
47.099998 53.477604
44.200001 53.478214
42.775002 53.379696
42.500000 53.307796
42.849998 53.205845
43.575001 53.279869
45.325001 53.284416
48.025002 53.337212
53.674999 53.474705
58.775002 53.476097
59.849998 53.675026
56.775002 53.820213
51.900002 53.827225
47.275002 53.832336
47.650002 53.885544
60.599998 53.924381
77.074997 53.853767
81.349998 53.653793
69.650002 53.656277
53.474998 53.509663
42.650002 53.402649
38.549999 53.324551
38.400002 53.415985
39.599998 53.383759
43.150002 53.409729
47.025002 53.329712
48.875000 53.172356
47.924999 53.304909
45.650002 53.352173
43.299999 53.287704
41.825001 53.438572
41.950001 53.400246
42.849998 53.421753
43.775002 53.387974
44.299999 53.016956
44.599998 53.092533
44.924999 52.949772
44.825001 52.895061
44.924999 52.904606
48.400002 53.208454
55.099998 53.529171
60.849998 53.812717
61.299999 53.920712
57.450001 53.900566
58.549999 53.984825
71.599998 53.897884
83.724998 53.883907
82.324997 53.972668
68.949997 53.889011
54.950001 53.877434
46.724998 53.819500
43.250000 53.727741
41.325001 53.660770
40.775002 53.512936
42.650002 53.405041
45.325001 53.276817
47.625000 53.430626
47.500000 53.394451
46.450001 53.318565
44.974998 53.263180
44.150002 53.321716
43.549999 53.314957
43.700001 53.211071
43.974998 53.184731
44.849998 53.214977
45.625000 53.237053
47.450001 53.352127
50.875000 53.436115
54.599998 53.695328
55.650002 53.835030
54.250000 53.739079
51.150002 53.669048
48.049999 53.568451
45.775002 53.692959
45.500000 53.734348
54.075001 53.616119
73.099998 53.579304
85.775002 53.552437
82.949997 53.532829
66.425003 53.469036
49.400002 53.373005
40.450001 53.500828
38.000000 53.396206
38.724998 53.418800
40.775002 53.286854
44.125000 53.240040
47.599998 53.205868
49.275002 53.032490
48.599998 52.955433
46.275002 52.899193
44.049999 53.006584
42.775002 52.986004
42.674999 52.921505
43.299999 52.973389
43.974998 52.912300
44.900002 53.065620
44.875000 53.029095
45.299999 53.051910
46.075001 53.266476
48.250000 53.423077
52.400002 53.586853
57.150002 53.607430
58.599998 53.671925
57.349998 53.669518
62.625000 53.519318
76.150002 53.508656
84.025002 53.401917
77.875000 53.521927
62.025002 53.461086
47.049999 53.268234
38.625000 53.226444
35.549999 53.096989
36.549999 53.051983
39.674999 53.118099
43.525002 53.116871
45.900002 53.313889
46.349998 53.210289
45.150002 53.283112
43.500000 53.286781
42.450001 53.289463
42.349998 53.340897
43.049999 53.279480
44.025002 53.135696
45.599998 53.129711
48.549999 53.273785
53.500000 53.131531
59.375000 53.225632
61.075001 53.393272
58.075001 53.416660
53.450001 53.681129
48.674999 53.676231
46.424999 53.969532
52.299999 53.985680
69.775002 54.096428
84.474998 53.979332
83.275002 53.794914
68.125000 53.610844
50.575001 53.476498
40.150002 53.279488
36.674999 53.135708
36.974998 52.981285
39.599998 53.017014
43.150002 52.993614
46.799999 53.026020
48.750000 52.851749
48.275002 52.823521
46.174999 53.050312
44.000000 53.116875
42.525002 52.967537
42.450001 53.204903
43.900002 53.229702
48.950001 53.346764
55.525002 53.531155
59.799999 53.616253
58.900002 53.628880
54.500000 53.588619
50.075001 53.559238
52.950001 53.537792
67.199997 53.670578
80.574997 53.668533
80.425003 53.617558
67.925003 53.580357
52.950001 53.553204
43.599998 53.582863
39.599998 53.406597
38.625000 53.327435
39.924999 53.467567
42.525002 53.421406
45.799999 53.437199
47.724998 53.399239
47.599998 53.322063
45.825001 53.265732
43.950001 53.224617
43.775002 53.194614
44.474998 53.172714
45.250000 53.305172
46.200001 53.253407
47.025002 53.116661
48.000000 53.115826
49.125000 52.620419
50.549999 52.902081
51.825001 53.107651
58.400002 53.505081
74.250000 53.795139
85.775002 53.660480
85.849998 53.760124
75.800003 53.832848
60.650002 53.836437
50.099998 53.888542
45.474998 53.778133
43.950001 53.796509
44.875000 53.809925
47.049999 54.067108
48.924999 54.155857
50.174999 54.171150
48.825001 54.083347
45.450001 54.118221
41.224998 54.094200
37.724998 54.324066
36.575001 53.997036
37.025002 53.857315
38.450001 53.705860
40.700001 53.694283
42.674999 53.685833
43.724998 53.531227
43.924999 53.467869
43.450001 53.372147
45.250000 53.302288
55.974998 53.350262
75.199997 53.533707
85.800003 53.469681
84.074997 53.670349
71.925003 53.717842
58.974998 53.752502
50.775002 53.876762
46.775002 53.917973
46.174999 53.898571
48.599998 54.082325
51.849998 54.364872
57.049999 54.571091
66.449997 54.622639
63.900002 54.511829
53.200001 54.430950
41.775002 54.174007
35.599998 53.986473
34.375000 53.849609
37.000000 53.848675
37.750000 53.699558
38.275002 53.541245
39.900002 53.524666
41.224998 53.710476
42.250000 53.697651
43.000000 53.638817
43.650002 53.546387
51.400002 53.825291
68.300003 53.880405
82.400002 53.920631
81.849998 53.949993
69.750000 54.020897
56.849998 54.072647
48.700001 54.011459
45.625000 53.966801
45.424999 54.330044
46.974998 54.545670
49.950001 54.653568
51.299999 54.930233
50.575001 55.033192
48.400002 55.009380
45.849998 55.140438
44.775002 55.137138
44.974998 55.134724
45.099998 55.231918
47.075001 55.203903
48.525002 55.183449
49.500000 55.168526
49.700001 55.306072
48.674999 55.208538
46.150002 55.038403
44.375000 55.013184
44.250000 54.846340
43.650002 54.922493
42.549999 54.879108
42.474998 54.995884
50.875000 55.279026
64.974998 55.584637
83.000000 56.005596
83.300003 56.362312
70.750000 56.523705
56.799999 56.987843
48.674999 57.079201
45.599998 57.294315
45.000000 57.401836
45.900002 57.430828
48.200001 57.550945
49.974998 57.440701
48.825001 57.261280
45.349998 56.932407
42.025002 56.840820
41.599998 56.675022
42.200001 56.405575
42.674999 56.208927
43.599998 56.114880
43.924999 56.046246
44.400002 55.897186
44.325001 55.738918
44.825001 55.672886
45.349998 55.624695
45.250000 55.836926
45.924999 56.140251
48.299999 56.312153
50.424999 56.586048
54.799999 56.835434
65.275002 57.116402
75.724998 57.370949
76.125000 57.754639
67.099998 58.034676
55.599998 58.239063
47.799999 58.239788
44.099998 58.141357
42.625000 58.217960
42.250000 58.125431
42.825001 57.810501
43.075001 57.679607
41.825001 57.287209
41.224998 57.050297
41.775002 56.728951
41.599998 56.444931
42.224998 56.287128
44.375000 56.122475
46.500000 56.002304
48.174999 55.964077
49.325001 56.233055
50.474998 56.528320
52.174999 56.892258
53.000000 57.157875
52.299999 57.351738
51.424999 57.740616
50.375000 57.826519
49.349998 57.988186
48.875000 58.254601
49.125000 58.300613
54.275002 57.938358
65.650002 58.168758
72.349998 58.435879
67.849998 58.432919
57.099998 58.183353
47.599998 57.902260
42.724998 57.548660
40.025002 57.389549
40.400002 57.223946
43.900002 57.004128
47.700001 56.843693
49.750000 56.528679
50.150002 56.496681
49.099998 56.423855
47.575001 56.321224
46.025002 56.444233
44.075001 56.583488
44.025002 56.685131
46.450001 56.858265
49.325001 56.836193
51.250000 57.116955
50.825001 57.123955
49.450001 57.129063
48.299999 57.182266
47.775002 57.320057
47.575001 57.420624
47.275002 57.444542
47.099998 57.461998
47.125000 57.375782
47.575001 57.510773
54.525002 57.559814
67.974998 57.546131
76.500000 57.734058
72.775002 57.722782
62.674999 57.764030
54.000000 57.744652
49.799999 57.730511
47.924999 57.670712
47.049999 57.429146
47.025002 57.252842
48.400002 57.124172
50.250000 57.079742
49.950001 57.096798
47.775002 57.109238
45.950001 57.118324
45.400002 57.372345
46.174999 57.557743
47.650002 57.693054
48.974998 57.643372
49.525002 57.805035
49.325001 57.972496
48.125000 57.946281
47.450001 57.976624
46.849998 57.454498
46.875000 57.617699
47.250000 57.588379
47.500000 57.566978
47.025002 57.551353
47.125000 57.737873
51.900002 57.725563
63.974998 57.716583
73.099998 57.660542
70.900002 57.421730
61.825001 57.494827
53.650002 57.449219
50.000000 57.267494
48.750000 57.332783
49.075001 57.231998
49.275002 57.257397
49.549999 57.275925
48.724998 57.388416
47.075001 57.272594
45.974998 57.138584
45.075001 57.040779
45.299999 56.919918
46.349998 57.128582
47.599998 57.181915
48.799999 57.072407
49.474998 57.091434
48.799999 57.006367
48.250000 57.092720
47.400002 57.056789
47.250000 57.030563
47.174999 57.159859
46.849998 57.105789
46.549999 57.165283
46.674999 57.109745
46.825001 57.267128
47.825001 57.184074
55.224998 57.172943
70.500000 57.065857
80.574997 57.086662
77.025002 57.052368
64.650002 57.225246
53.125000 57.202991
48.049999 57.087784
47.625000 57.003708
48.775002 57.041298
50.174999 56.920296
51.549999 56.881462
52.500000 57.051037
51.724998 57.224281
48.775002 57.202282
46.275002 57.235710
45.599998 57.359062
46.275002 57.350132
47.900002 57.294136
48.575001 57.253265
48.900002 57.223438
48.799999 57.350109
48.625000 57.442558
47.750000 57.460545
47.400002 57.473682
47.099998 57.384308
46.700001 57.516994
46.375000 57.415920
46.174999 57.292667
46.150002 57.400631
45.849998 57.479427
49.224998 57.437981
61.025002 57.407726
74.775002 57.435131
77.300003 57.405647
68.224998 57.334656
55.575001 57.183880
46.299999 56.925404
42.250000 56.835712
41.724998 56.473373
44.075001 56.159451
47.099998 55.831371
50.275002 55.591927
51.400002 55.466648
50.325001 55.375217
47.174999 55.209530
44.224998 55.286518
42.049999 55.342705
37.849998 55.334240
46.400002 55.427017
54.775002 55.593689
66.150002 55.863770
66.675003 55.912445
61.500000 56.046932
54.825001 56.194565
49.799999 56.401272
47.000000 56.354221
46.075001 56.369362
46.799999 56.479370
47.250000 56.361740
50.099998 56.374847
54.000000 56.384407
80.125000 56.193474
76.900002 56.004646
60.750000 55.817352
37.775002 55.482735
24.450001 55.189037
23.825001 54.925209
33.349998 54.782131
4.725000 54.628231
85.724998 54.466427
75.449997 54.546253
2.225000 54.505550
73.099998 54.426369
83.275002 54.665447
83.599998 54.543072
53.299999 54.453754
17.924999 54.339085
10.375000 54.205914
17.299999 54.207680
46.724998 54.159489
63.174999 54.124325
80.900002 53.999691
78.974998 53.760296
79.425003 53.635048
82.775002 53.494167
45.349998 53.391342
0.600000 53.266815
0.275000 53.472805
6.900000 53.375751
32.049999 53.552315
65.750000 53.582214
83.025002 53.554562
82.949997 53.633335
84.324997 53.641354
43.150002 53.746159
48.924999 53.872135
78.175003 53.766155
82.099998 53.787769
82.250000 53.704578
40.375000 53.792305
15.250000 53.856331
24.500000 53.705143
37.500000 53.594807
0.375000 53.415314
18.850000 53.432751
57.200001 53.445473
69.925003 53.256847
61.775002 53.366573
50.275002 53.347694
43.174999 53.284439
40.049999 53.436192
40.450001 53.299549
42.325001 53.348259
44.549999 53.433292
46.674999 53.445869
45.049999 53.554012
32.474998 53.632938
60.325001 53.591579
59.750000 53.561401
83.800003 53.687813
69.025002 53.780067
58.174999 53.896877
31.450001 52.398796
18.025000 52.888771
47.625000 53.097931
66.025002 53.201107
59.549999 53.226936
68.974998 53.443695
70.449997 53.403984
62.174999 53.473961
52.900002 53.525036
46.125000 53.512825
42.450001 53.553398
41.900002 53.434570
42.299999 53.347847
43.625000 53.185596
45.000000 53.314564
45.400002 53.309742
45.150002 53.355698
44.450001 53.290279
44.375000 53.341499
42.049999 53.626270
42.950001 53.784634
45.724998 53.652813
25.750000 53.754524
23.075001 53.729794
45.849998 53.711754
57.375000 53.698586
67.300003 53.738453
76.974998 53.718071
51.599998 53.554756
83.599998 53.435566
74.875000 53.447529
62.674999 53.604702
49.400002 53.521492
43.000000 53.411285
40.025002 53.330849
41.724998 53.371105
46.849998 53.449959
49.299999 53.408554
48.174999 53.279385
46.775002 53.432503
44.400002 53.593731
42.049999 53.612442
40.325001 53.626102
40.174999 53.685555
36.000000 53.778419
43.625000 53.598801
43.125000 53.467709
42.000000 53.470989
43.750000 53.522861
44.674999 53.461769
42.625000 53.466652
49.674999 53.371262
50.674999 53.202679
50.625000 53.277561
57.950001 53.282730
76.699997 53.237026
85.550003 53.401585
85.300003 53.323772
73.875000 53.365940
66.750000 53.446194
57.625000 53.356331
55.349998 53.389702
49.875000 53.166656
46.349998 53.152309
46.500000 53.092361
48.375000 53.246521
49.299999 53.260078
47.525002 53.319454
44.200001 53.362782
41.450001 53.394409
38.450001 53.466969
47.375000 54.014721
38.474998 53.820744
34.450001 53.877090
35.825001 53.918213
38.875000 53.849270
44.099998 53.699986
44.450001 53.591034
51.125000 53.511524
52.825001 53.305050
50.025002 53.154354
46.275002 52.994888
46.500000 53.076427
57.599998 53.135941
75.550003 53.129890
84.900002 53.125473
80.050003 53.221214
67.300003 53.439529
56.174999 53.450420
50.099998 53.260456
46.799999 53.418686
45.424999 53.385727
43.974998 53.460640
46.075001 53.515305
52.275002 53.604683
48.525002 53.669918
51.724998 53.618572
50.724998 53.482136
47.500000 53.481522
43.825001 53.580025
42.250000 53.503487
44.500000 53.398144
35.924999 53.321259
35.500000 53.265144
39.474998 53.323154
44.375000 53.266525
47.849998 53.076763
49.325001 53.136189
48.849998 53.080593
48.099998 53.040020
46.950001 53.109364
46.750000 53.110493
56.349998 53.111320
74.349998 53.111923
85.375000 53.112370
85.525002 53.112690
76.474998 53.360313
63.349998 53.343132
50.775002 53.380066
47.299999 53.308067
43.799999 53.552391
51.724998 53.730717
58.799999 53.712421
59.325001 53.699070
53.099998 53.936726
54.700001 53.912251
40.575001 53.795433
30.799999 53.660698
34.625000 53.611843
42.625000 53.526711
43.500000 53.266655
54.400002 53.225292
50.700001 53.046673
39.924999 53.114220
36.875000 53.163517
38.974998 53.150017
43.750000 53.140171
46.974998 53.231937
49.625000 53.298912
48.849998 53.248833
47.474998 53.261768
47.224998 53.469120
53.599998 53.521496
67.300003 53.609207
83.300003 53.623741
80.150002 53.683823
67.375000 53.678200
50.275002 53.525661
51.000000 53.414326
50.075001 53.234108
54.549999 53.349976
54.400002 53.335583
53.349998 53.176640
52.625000 53.159599
51.849998 53.048199
49.700001 53.164814
47.125000 53.200443
45.500000 53.028534
44.750000 53.249420
45.025002 53.361145
45.599998 53.393219
46.075001 53.367146
45.900002 53.298637
45.700001 53.347595
45.325001 53.284367
44.400002 53.337177
45.724998 53.227291
42.575001 53.345001
36.150002 53.331955
40.575001 53.272957
43.500000 53.328846
52.825001 53.369644
69.050003 53.597336
79.800003 53.417160
78.525002 53.285660
67.900002 53.437080
56.250000 53.399155
49.875000 53.371479
47.400002 53.252319
46.049999 53.066395
46.224998 53.079132
48.275002 52.989475
50.000000 52.924034
50.500000 52.876274
48.674999 52.989857
45.799999 53.072754
43.075001 53.133251
41.599998 53.226894
38.000000 53.196274
45.349998 53.272888
46.474998 53.378277
46.700001 53.306763
45.125000 53.452480
41.849998 53.558834
40.049999 53.586975
50.974998 53.409603
52.174999 53.428581
49.049999 53.392960
45.799999 53.169037
43.724998 53.154045
44.200001 53.093628
53.674999 53.247448
72.224998 53.260757
84.474998 53.220989
82.300003 53.191967
69.900002 52.972862
57.200001 53.159317
49.950001 53.245907
46.974998 53.259628
45.049999 53.467564
43.650002 53.520363
44.299999 53.657852
44.849998 53.659245
45.049999 53.709743
39.575001 53.647633
36.724998 53.503349
36.674999 53.398045
37.500000 53.370667
44.674999 53.449642
43.700001 53.408325
49.875000 53.328690
51.625000 53.270565
50.400002 53.030235
48.150002 53.151699
46.424999 52.943474
45.825001 52.989426
45.424999 53.022964
45.150002 52.997959
45.250000 53.128139
45.000000 53.173676
45.724998 53.157433
54.750000 53.294014
71.449997 53.245258
81.599998 53.308636
76.650002 53.354893
55.400002 53.537086
52.000000 53.472145
37.700001 53.276314
44.474998 53.430256
48.075001 53.344700
47.224998 53.529652
48.775002 53.565674
48.400002 53.443535
45.174999 53.552303
42.250000 53.483253
41.125000 53.531811
41.549999 53.765171
43.125000 53.589127
44.674999 53.510132
45.474998 53.304035
46.000000 53.153614
45.950001 53.093315
45.674999 53.148262
45.750000 53.188366
45.650002 53.168156
45.625000 53.153404
45.125000 53.043682
44.900002 53.309956
44.049999 53.306374
33.625000 53.303764
54.500000 53.499771
65.650002 53.444916
78.449997 53.503834
76.750000 53.546833
65.800003 53.528740
54.950001 53.565010
43.674999 53.294609
47.400002 53.146744
49.275002 53.088291
49.174999 53.144596
49.325001 53.185692
50.099998 53.166199
50.500000 53.151974
49.750000 53.240551
47.724998 53.305199
45.575001 53.104984
44.299999 53.156776
44.099998 53.343025
44.724998 53.231552
45.275002 53.298634
45.474998 53.397072
45.049999 53.419434
43.849998 53.485237
43.025002 53.384823
42.599998 53.410500
43.474998 53.280796
39.974998 53.483013
42.200001 53.432682
43.174999 53.445423
43.775002 53.454720
44.900002 53.461517
70.650002 53.515949
83.974998 53.456722
84.050003 53.364014
79.375000 53.345829
63.500000 53.332558
52.849998 53.421829
47.849998 53.388031
45.500000 53.313873
44.750000 53.309235
46.275002 53.256371
49.125000 53.118832
50.825001 53.067924
50.750000 53.228691
48.575001 53.247063
46.075001 53.309956
44.025002 53.355854
42.950001 53.290390
42.325001 53.638447
43.450001 53.546124
43.825001 53.478745
44.224998 53.726433
44.325001 53.808258
44.875000 53.719540
44.549999 53.605305
45.450001 53.472450
46.349998 53.424973
46.875000 53.142925
47.125000 53.134991
50.224998 53.277634
63.599998 53.381744
80.500000 53.358772
84.050003 53.292519
78.199997 53.244175
64.000000 53.505760
52.674999 53.597721
47.000000 53.516396
44.724998 53.457047
44.750000 53.215809
46.900002 53.435581
48.849998 53.595978
49.000000 53.812004
46.174999 53.821228
42.799999 53.778488
36.450001 53.796764
34.125000 53.711151
36.025002 53.648663
39.400002 53.751492
43.049999 53.628628
45.275002 53.489479
44.000000 53.387924
47.325001 53.214844
50.474998 53.236961
50.424999 53.203621
48.650002 53.228767
47.049999 53.247120
46.325001 53.161560
45.849998 53.198067
45.750000 53.224712
48.525002 53.194683
62.099998 53.271721
80.275002 53.228996
84.199997 53.197803
77.449997 53.175045
61.900002 53.405827
49.349998 53.475300
43.224998 53.427052
41.474998 53.441315
37.375000 53.352768
47.625000 53.436584
45.075001 53.497749
42.724998 53.196037
34.525002 53.371674
50.000000 53.252460
53.849998 53.363369
50.474998 53.345364
46.799999 53.282742
44.625000 53.286514
44.375000 53.140831
45.174999 53.133461
45.775002 53.078602
46.500000 52.939610
46.750000 53.036079
46.549999 53.155968
46.200001 53.144512
46.150002 53.037189
45.700001 53.156776
45.325001 53.244061
44.775002 53.258282
45.674999 53.516056
55.150002 53.803150
69.324997 53.765289
73.250000 53.836613
75.675003 53.839188
64.199997 53.890553
52.375000 53.779598
52.974998 53.599663
48.049999 53.517815
48.474998 53.557041
42.525002 53.486713
43.474998 53.385899
46.775002 53.312325
46.974998 53.209148
56.150002 53.331760
52.599998 53.322292
43.799999 53.265900
39.424999 53.422657
39.525002 53.289669
41.599998 53.341053
44.450001 53.329071
45.700001 53.320332
45.450001 53.363426
42.525002 53.295925
37.000000 53.345612
31.825001 53.480839
32.974998 53.629009
55.525002 53.539234
66.175003 53.523190
61.974998 53.610439
55.825001 53.773079
62.825001 53.743343
71.974998 53.523720
75.599998 53.412918
69.875000 53.529957
59.200001 53.466942
50.900002 53.470428
48.075001 53.423496
46.599998 53.339760
45.849998 53.328133
46.549999 53.270157
48.575001 53.227852
50.224998 53.147491
49.775002 53.187801
48.075001 53.217224
46.224998 53.090260
44.775002 53.096550
44.349998 53.249584
44.349998 53.361267
44.825001 53.442787
43.775002 53.403316
43.674999 53.621914
37.099998 53.731972
42.599998 53.762817
55.849998 53.834812
50.700001 53.837875
60.849998 53.741154
46.974998 53.571606
32.400002 53.447853
29.674999 53.308060
37.099998 53.403950
56.750000 53.424458
78.099998 53.439426
83.474998 53.351391
78.199997 53.287132
64.724998 53.487633
53.700001 53.485535
48.099998 53.434521
46.049999 53.397289
44.875000 53.568027
45.700001 53.593689
47.775002 53.810326
49.625000 53.918968
48.900002 53.849815
46.700001 53.749866
45.125000 53.676922
29.250000 53.623684
52.500000 53.733269
63.674999 53.763763
64.949997 53.786018
43.599998 53.703308
25.900000 53.445026
25.549999 53.454430
33.174999 53.461304
41.924999 53.416836
47.700001 53.532818
49.924999 53.617470
49.375000 53.629768
47.750000 53.539787
49.424999 53.424637
61.025002 53.291111
76.150002 53.243145
80.974998 53.208138
72.625000 53.182583
59.049999 53.411331
48.349998 53.380363
42.549999 53.506203
40.224998 53.598042
41.674999 53.813507
34.525002 53.871803
37.424999 53.864872
64.625000 53.859814
72.900002 54.054043
80.599998 53.948399
41.700001 53.871304
45.000000 53.716068
28.125000 53.553299
26.125000 53.533455
33.174999 53.420013
41.549999 53.238262
47.750000 53.105610
50.150002 53.157230
50.250000 53.194912
49.474998 53.172932
48.275002 53.156891
46.750000 53.046227
45.875000 53.212852
45.700001 53.284981
51.650002 53.436588
66.324997 53.745148
76.349998 53.821915
74.099998 53.877941
60.625000 53.968315
49.224998 53.836353
44.625000 53.839005
39.400002 53.840939
45.849998 53.743389
45.450001 53.573235
49.549999 53.646961
49.799999 52.216396
46.625000 52.557728
45.424999 52.806847
46.474998 52.988667
47.299999 53.170841
47.775002 53.254326
47.724998 53.216297
47.750000 53.386452
47.375000 53.362209
47.474998 53.393993
47.375000 53.268749
47.150002 53.325787
46.799999 53.367409
46.474998 53.397785
45.599998 53.518917
43.275002 53.508366
46.275002 53.649097
33.299999 53.553898
57.474998 53.533890
82.525002 53.618252
82.675003 53.778782
84.375000 53.846462
64.974998 53.796898
58.099998 53.760727
50.700001 53.833286
46.875000 53.787281
44.775002 53.753708
44.950001 53.729202
47.424999 53.661842
50.775002 53.662155
52.200001 53.612904
51.400002 53.576962
48.674999 53.451767
46.650002 53.409878
45.200001 53.329819
45.000000 53.271393
45.150002 53.327713
45.275002 53.566730
46.375000 53.741180
42.799999 53.917976
37.200001 53.898571
38.349998 54.032848
50.724998 54.031895
34.849998 54.031197
29.600000 54.030685
32.849998 53.980831
42.025002 53.894974
60.974998 53.683865
83.000000 53.529797
85.224998 53.367867
78.400002 53.497078
64.275002 53.442947
54.674999 53.452915
49.299999 53.460197
46.525002 53.465508
46.299999 53.518860
48.474998 53.458847
51.450001 53.514000
52.799999 53.653210
51.450001 53.754814
49.025002 53.730007
46.075001 53.711906
44.375000 53.748173
43.450001 53.873604
42.099998 53.767227
41.525002 53.689594
40.724998 53.632927
41.025002 53.740013
42.075001 53.719208
44.474998 53.654545
45.224998 53.508392
47.525002 53.500683
49.474998 53.495056
49.674999 53.490948
49.224998 53.388996
57.450001 53.561977
77.324997 53.638756
85.324997 53.595829
85.300003 53.515015
85.300003 53.406555
71.750000 53.426357
60.674999 53.341858
53.150002 53.379135
46.775002 53.307384
42.950001 53.452934
42.500000 53.410732
43.900002 53.627323
44.474998 53.587479
42.674999 53.756325
40.275002 53.830067
39.549999 53.735458
39.224998 53.715885
39.700001 53.800560
40.825001 53.664436
43.825001 53.565090
47.575001 53.492584
48.625000 53.687061
48.224998 53.581600
47.450001 53.356194
47.000000 53.290642
46.450001 53.143841
46.224998 53.284092
46.099998 53.287498
46.075001 53.191025
48.775002 53.170094
61.650002 53.154816
78.974998 53.094193
85.324997 53.247856
77.099998 53.409489
53.799999 53.774849
54.075001 53.843590
71.599998 53.943245
60.424999 54.015972
61.525002 53.871140
42.724998 53.864384
41.325001 53.661549
29.875000 53.513500
28.825001 53.355972
30.125000 53.389442
37.125000 53.314907
43.950001 53.359470
48.125000 53.293034
49.275002 53.343510
48.700001 53.380341
47.599998 53.308266
46.974998 53.206188
46.900002 53.379078
46.349998 53.257862
46.099998 53.317833
46.224998 53.213173
45.599998 53.186260
44.000000 53.265575
49.299999 53.224503
42.200001 53.392448
64.550003 53.416065
82.199997 53.581734
84.849998 53.504734
64.500000 53.596970
61.325001 53.466366
60.375000 53.470009
36.799999 53.522144
33.099998 53.263325
42.200001 53.074425
62.924999 53.282909
68.099998 53.435074
62.900002 52.012276
53.750000 52.458229
46.025002 53.031105
41.950001 53.102859
41.375000 52.957310
42.849998 52.900558
44.549999 53.156017
45.549999 53.243504
45.724998 53.257874
45.500000 53.169407
45.325001 53.154312
44.724998 53.143307
38.174999 53.283703
52.000000 53.534611
40.075001 53.618778
40.750000 53.729683
29.850000 53.810627
39.325001 53.820221
47.075001 53.777756
65.625000 53.598316
73.125000 53.566307
69.750000 53.443993
60.099998 53.255764
54.525002 53.167866
52.174999 53.301628
52.724998 53.250824
51.349998 53.213737
48.400002 53.186672
46.974998 53.265877
48.424999 53.323685
49.974998 53.365871
47.674999 53.149269
44.299999 53.387016
47.049999 53.461578
49.650002 53.614948
41.849998 53.627937
35.875000 53.686890
35.474998 53.729912
38.474998 53.563400
38.825001 53.441875
49.025002 53.303696
57.400002 53.351288
71.050003 53.138630
50.450001 53.131851
38.674999 53.126911
35.974998 53.222260
38.775002 53.291851
43.275002 53.194206
49.025002 53.023979
61.924999 53.246090
78.025002 53.358719
84.150002 53.539883
76.199997 53.474186
62.549999 53.376759
51.599998 53.454090
44.075001 53.461052
40.674999 53.565090
36.099998 53.393627
41.025002 53.565357
46.849998 53.492783
58.775002 53.588245
75.599998 53.558964
40.500000 53.735508
55.849998 53.715923
30.000000 53.454231
15.975000 53.362190
24.450001 53.344505
40.450001 53.480030
50.700001 53.479984
53.974998 53.529427
52.924999 53.417076
49.825001 53.335072
47.224998 53.176270
45.349998 53.060371
44.549999 53.025261
51.700001 53.247028
38.775002 53.458370
35.000000 53.662090
54.575001 53.711815
77.375000 53.896549
83.050003 53.932411
83.824997 53.909111
82.675003 53.793144
62.549999 53.856945
41.974998 53.903511
60.325001 53.789059
70.974998 53.656044
69.025002 53.608444
60.224998 53.573711
52.875000 53.449394
47.700001 53.259708
44.500000 53.170742
43.900002 53.204773
41.875000 53.229610
42.849998 53.198254
45.875000 53.175369
25.575001 53.059711
19.799999 53.222694
27.500000 53.341648
27.450001 53.527428
64.099998 53.811451
55.875000 53.870308
35.525002 53.863781
33.799999 53.809540
31.525000 53.720474
38.525002 53.655468
48.025002 53.509071
44.125000 53.204304
82.550003 53.080826
82.675003 53.238106
82.775002 53.253937
79.800003 53.216011
66.974998 53.188332
55.825001 53.168133
42.375000 53.252350
45.375000 53.313805
39.424999 52.962833
30.950001 53.201466
33.974998 53.227196
42.674999 53.394409
54.950001 53.664890
51.025002 53.515942
49.599998 53.654629
45.775002 53.508453
54.700001 53.599689
61.724998 53.616795
52.875000 53.728233
51.825001 53.760090
17.650000 53.585423
29.325001 53.457947
39.775002 53.265945
37.974998 53.323734
39.125000 53.266949
42.424999 53.077072
45.625000 53.136410
47.625000 53.278675
48.450001 53.283546
41.775002 53.188145
56.500000 53.167992
78.775002 53.252247
84.525002 53.214775
75.324997 53.187428
71.500000 53.266426
54.075001 53.472519
40.075001 53.672417
49.099998 53.521435
66.449997 53.609161
74.400002 53.574230
66.150002 53.697170
55.224998 53.638462
41.500000 53.496655
13.650000 53.591072
2.350000 53.709469
4.850000 53.449520
20.950001 53.358753
38.375000 53.341995
49.724998 53.181320
54.275002 53.163013
53.575001 53.100174
50.200001 53.153263
47.400002 53.192017
45.750000 53.071865
45.325001 52.984165
45.650002 53.118080
45.849998 53.215816
45.450001 53.287144
47.724998 53.438164
64.150002 53.746300
84.375000 53.822758
84.349998 53.878555
72.550003 53.820316
55.500000 53.827301
45.224998 53.782917
45.424999 53.602085
36.674999 53.371147
50.400002 53.153118
56.474998 53.290867
52.400002 53.292442
50.000000 53.194637
48.825001 53.172733
47.750000 53.255707
46.924999 53.365746
46.549999 53.297615
46.825001 53.247883
48.500000 53.458992
51.299999 53.613060
33.075001 53.824474
49.000000 53.780849
40.875000 53.798492
37.349998 53.811371
40.275002 53.622852
42.500000 53.584217
43.200001 53.556026
43.375000 53.683884
44.625000 53.579288
47.424999 53.453465
80.775002 53.361633
83.449997 53.195652
83.525002 53.272438
83.574997 53.328468
79.550003 53.270405
61.700001 53.425949
50.849998 53.292072
46.349998 53.342808
44.950001 53.330349
46.349998 53.271778
48.950001 53.327991
49.000000 53.270058
49.599998 53.425694
37.700001 53.489803
42.674999 53.635551
42.474998 53.741932
38.799999 53.770088
28.650000 53.691685
30.250000 53.535496
34.575001 53.668900
42.150002 53.617832
81.199997 53.481598
64.675003 53.233730
77.949997 53.250744
78.050003 53.312637
81.275002 53.209377
81.525002 53.183487
38.799999 53.263554
17.049999 53.223030
30.400000 53.193451
52.625000 53.270821
15.100000 53.475731
76.974998 53.575806
83.275002 53.797279
29.049999 53.909439
63.450001 53.892345
41.724998 53.929344
24.850000 54.005833
29.875000 54.012173
41.049999 54.165237
39.000000 54.128513
44.275002 54.002754
76.625000 53.812008
76.875000 53.623314
76.625000 53.584557
76.500000 53.457314
75.625000 53.364449
63.974998 53.296665
55.375000 53.395634
46.549999 53.368908
42.474998 53.299923
40.025002 53.249577
39.799999 53.113873
39.775002 53.212746
40.974998 53.136471
42.474998 53.130276
43.875000 52.977322
46.375000 53.063599
52.549999 53.324493
77.474998 53.564381
72.425003 53.640503
37.250000 53.795017
32.099998 53.808834
59.349998 53.917877
54.625000 53.849022
57.775002 53.897728
15.850000 53.735359
16.650000 53.567368
29.000000 53.543728
30.450001 53.427513
55.700001 53.491131
63.549999 53.339642
59.325001 53.278568
48.200001 53.283466
40.474998 53.287045
37.000000 53.339130
37.375000 53.327667
39.750000 53.269821
41.950001 53.326569
43.400002 53.269016
43.325001 53.128063
38.275002 53.322063
43.200001 53.463650
69.800003 53.616470
70.949997 53.579563
58.375000 53.651585
44.500000 53.605186
37.174999 53.967163
42.125000 54.033432
53.500000 53.982838
46.400002 53.995388
70.824997 54.004547
55.224998 53.714363
39.974998 53.601532
32.250000 53.469704
32.375000 53.373489
38.224998 53.303265
42.775002 53.252014
44.375000 53.066166
46.575001 53.128448
47.474998 53.173904
46.724998 53.058643
45.474998 53.073479
43.674999 53.183266
43.200001 53.312866
43.250000 53.357979
46.075001 53.341427
28.924999 53.675697
36.375000 53.919666
43.849998 53.949280
45.275002 54.020378
43.900002 54.121746
41.775002 54.047287
40.974998 53.844521
47.700001 53.647041
37.474998 53.453438
42.849998 53.411095
53.549999 53.380188
63.775002 52.714405
63.750000 52.822239
57.650002 53.049377
52.099998 53.215149
48.500000 53.138226
45.375000 53.131561
44.650002 53.126698
45.625000 53.073669
47.299999 53.183403
47.200001 53.214008
46.400002 53.236351
43.924999 53.351612
40.775002 53.386253
38.474998 53.411545
36.849998 53.429996
0.325000 53.591900
43.174999 53.710072
74.550003 53.796310
73.625000 53.710823
72.375000 53.648422
73.324997 53.503922
62.075001 53.398460
53.349998 53.024616
38.750000 53.098122
32.450001 53.102291
35.974998 53.006374
46.700001 53.035332
60.500000 52.957508
67.900002 53.148102
76.425003 53.188248
48.924999 53.019627
14.975000 53.242920
8.875000 53.257450
12.125000 53.218575
34.700001 53.190205
62.849998 53.268452
72.474998 53.375042
63.525002 53.403358
51.474998 53.473503
55.974998 53.772095
42.150002 53.742622
64.375000 53.770592
4.350000 53.840485
4.225000 53.743057
5.725000 53.572994
56.424999 53.498352
58.224998 53.592312
46.525002 53.413498
36.150002 53.431419
33.525002 52.009609
33.825001 52.307846
36.775002 52.525517
40.924999 52.585419
44.099998 52.629139
46.625000 52.710526
55.125000 53.066807
67.349998 53.128910
73.875000 53.124763
63.750000 53.121735
50.799999 53.218479
47.049999 53.338570
32.849998 53.426216
0.200000 53.539665
41.049999 53.869862
71.224998 53.962414
75.675003 54.029964
78.324997 53.980305
34.950001 54.043026
25.025000 53.940365
14.725000 53.815952
41.400002 53.626198
53.075001 53.784576
54.424999 53.801212
50.375000 53.714394
45.549999 53.601551
42.974998 53.469715
41.900002 53.373497
42.025002 53.204315
42.400002 53.179790
42.150002 53.260853
49.400002 53.468456
33.650002 53.669453
7.500000 53.816151
24.674999 53.824257
16.125000 53.879650
17.799999 53.870602
28.900000 53.863995
39.150002 53.760220
44.900002 53.684479
80.125000 53.530243
80.199997 53.417675
76.625000 53.335514
62.325001 53.374512
50.849998 53.402973
44.450001 53.176346
42.299999 53.109901
42.299999 53.160370
43.625000 53.098244
45.325001 53.201336
46.025002 53.227104
46.424999 53.196426
44.349998 53.322475
44.900002 53.364994
42.325001 53.396027
41.625000 53.418674
51.849998 53.534161
38.849998 53.470009
35.125000 53.472672
48.700001 53.474609
6.825000 53.377068
79.175003 53.157436
78.775002 53.145584
78.375000 52.988491
76.425003 53.170715
76.500000 53.105793
76.375000 53.157364
76.449997 53.145531
63.150002 53.433765
49.299999 53.446217
41.724998 53.405823
36.325001 53.326862
36.299999 53.467155
40.299999 53.619022
42.325001 53.779343
32.825001 53.896347
29.450001 54.130180
45.125000 54.152409
13.600000 54.069668
0.250000 53.910324
0.225000 54.090900
18.924999 53.876347
0.175000 53.719753
70.925003 53.555984
80.724998 53.485943
80.775002 53.187424
80.800003 53.068512
80.724998 52.981720
60.900002 53.017330
46.224998 53.043327
39.775002 53.062298
39.875000 53.076145
44.250000 52.987289
46.799999 53.120361
47.224998 53.167999
44.950001 53.202766
41.575001 53.574505
43.349998 53.895290
29.500000 53.931496
16.325001 54.007401
55.525002 53.963837
45.224998 53.932041
35.224998 53.710930
34.075001 53.648499
28.424999 53.355541
40.525002 53.389130
46.250000 53.314678
57.049999 53.260345
72.625000 53.220688
81.000000 53.092793
76.099998 53.246834
65.199997 53.260307
55.500000 53.270134
49.700001 53.277317
46.049999 53.282551
44.750000 53.286373
46.025002 53.388123
48.450001 53.313946
50.025002 53.309288
49.275002 53.256413
46.125000 53.217815
42.500000 53.585480
41.275002 53.705379
16.975000 53.842369
67.300003 53.942352
80.775002 53.817402
57.549999 53.726212
47.224998 53.808098
69.199997 53.669941
78.925003 53.519627
36.474998 53.459404
47.775002 53.514404
30.575001 53.505074
30.450001 53.448780
49.174999 53.259262
67.500000 53.269375
72.625000 53.078842
66.900002 53.088219
56.224998 53.045589
53.200001 53.212391
54.549999 53.235165
67.900002 53.202309
51.599998 53.376251
26.875000 53.602158
38.099998 53.767033
32.700001 53.738930
44.174999 53.668941
29.350000 53.766293
48.500000 53.738392
65.349998 53.816982
59.075001 53.676430
46.924999 53.425407
0.400000 53.242203
0.425000 53.207451
0.275000 53.083122
8.800000 53.140823
37.400002 53.034496
54.375000 53.055855
58.799999 52.972481
57.500000 53.109550
62.150002 53.061153
71.849998 52.926868
76.699997 53.026787
71.625000 53.248142
61.250000 53.310741
52.500000 53.405907
46.474998 53.425880
45.349998 53.489941
46.500000 53.388260
29.100000 53.413002
49.724998 53.332100
72.175003 53.470978
52.750000 53.522850
80.925003 53.313320
38.775002 53.160393
24.200001 52.949818
31.125000 52.944572
39.349998 52.940742
44.325001 52.838993
46.700001 52.962643
47.474998 53.151848
46.724998 53.092026
45.250000 53.048363
44.650002 52.967010
44.224998 52.957123
44.275002 52.801464
44.325001 52.786819
44.700001 52.726654
49.150002 52.880650
60.599998 52.993053
72.349998 53.124565
70.525002 53.220547
32.349998 53.488518
56.349998 53.634613
78.099998 53.642284
76.849998 53.548927
81.500000 53.579746
28.200001 53.503281
3.825000 53.447468
25.525000 53.159344
36.099998 52.949051
43.525002 52.944012
46.575001 52.841377
47.325001 52.766468
45.375000 52.711800
43.224998 52.770859
42.700001 52.863438
43.549999 52.881527
42.724998 52.944214
46.500000 53.088917
47.325001 53.095581
42.599998 53.199390
63.325001 53.275166
36.299999 53.280983
68.974998 53.285229
63.375000 53.238850
49.299999 53.205002
68.925003 53.180294
2.525000 53.310699
0.325000 53.158482
20.450001 53.195820
61.375000 53.124115
76.875000 53.121262
74.175003 53.069702
63.349998 53.131023
52.625000 53.126301
45.650002 53.122860
44.025002 53.021389
46.250000 52.897846
49.224998 52.807682
49.950001 52.840843
48.724998 52.815563
46.625000 52.797104
45.000000 52.684681
43.849998 52.751064
44.025002 52.799515
44.299999 52.785393
45.025002 53.071964
45.424999 53.182159
45.424999 53.361538
45.700001 53.442982
11.350000 53.452938
55.875000 53.460213
78.900002 53.366562
79.125000 53.199245
71.699997 53.176094
68.500000 53.307636
20.200001 53.156242
11.550000 53.045757
24.150000 52.965111
39.500000 52.807297
50.275002 52.840557
54.549999 52.765869
53.650002 52.810322
51.299999 52.941719
49.474998 52.938663
49.025002 53.084866
48.575001 53.241055
46.674999 53.305569
49.525002 53.402126
35.799999 53.324169
56.025002 53.366230
69.099998 53.396927
58.900002 53.567764
47.325001 53.593498
0.475000 53.562794
40.299999 53.490910
77.224998 53.339481
77.300003 53.080532
77.300003 52.990494
77.250000 52.974258
62.224998 53.061371
45.625000 53.025993
39.250000 53.049644
48.000000 53.066914
62.875000 52.980553
71.650002 53.115444
68.550003 53.213894
56.099998 53.186787
41.700001 53.265957
34.075001 53.373222
31.799999 53.500984
37.174999 53.544754
65.500000 53.527225
23.850000 53.563904
8.225000 53.442238
5.075000 53.402920
20.500000 53.473183
56.400002 53.425507
30.475000 53.242275
66.099998 53.108536
74.925003 51.625523
66.824997 52.077000
53.150002 52.307552
42.924999 52.376858
38.474998 52.625359
38.724998 52.806728
40.825001 52.741180
42.799999 52.792305
43.400002 52.879086
49.325001 53.041386
44.825001 53.060883
55.700001 53.075115
0.175000 53.036018
74.550003 53.106441
78.550003 53.256802
77.949997 53.267582
76.974998 53.225967
66.349998 53.245079
41.974998 53.011631
40.924999 52.940208
38.724998 52.838600
39.900002 52.962357
43.049999 52.904243
45.650002 52.861835
46.424999 52.830879
45.900002 52.709332
44.575001 52.769054
43.625000 52.862122
43.450001 52.979523
41.724998 53.312603
27.750000 53.506226
47.974998 53.400139
70.974998 53.570110
61.525002 53.694164
48.525002 53.636261
39.825001 53.495049
40.924999 53.490944
40.125000 53.240551
3.500000 53.206249
0.300000 53.230682
15.725000 53.199039
46.450001 53.076988
71.474998 53.185825
78.425003 53.116817
70.150002 52.967499
56.775002 53.056435
46.474998 52.923428
40.900002 52.925308
39.849998 53.124603
41.599998 53.270050
34.474998 53.376209
76.625000 53.305256
60.950001 53.253468
64.900002 53.314621
57.375000 53.507702
30.350000 53.450699
0.575000 53.359615
34.724998 53.342621
63.775002 53.231258
67.625000 53.001545
59.625000 52.932846
49.549999 52.783749
42.700001 52.922325
40.625000 52.924503
41.400002 52.876621
43.299999 52.841675
44.450001 52.618248
47.450001 52.702579
56.500000 52.665169
67.974998 52.835781
71.175003 53.207703
62.924999 53.429661
49.849998 53.492699
40.325001 53.538708
39.650002 53.770206
40.525002 53.741241
42.424999 53.670628
44.250000 53.520126
44.224998 53.509247
45.049999 53.451828
45.000000 53.310959
44.400002 53.158672
44.150002 53.146481
44.525002 52.939671
45.299999 53.036125
45.650002 53.007565
46.025002 52.887764
45.974998 52.998241
45.000000 52.979916
44.549999 53.065495
43.950001 53.127956
44.075001 53.124065
43.099998 53.319145
39.474998 53.362560
38.825001 53.394249
41.150002 53.417377
49.275002 53.582691
62.424999 53.505432
70.050003 53.498520
69.099998 53.394524
60.924999 53.219658
37.200001 53.141518
30.075001 53.084480
33.974998 52.943901
41.299999 53.039215
47.799999 53.009823
52.174999 53.037846
53.750000 53.107777
52.349998 53.158825
49.275002 53.097115
45.775002 52.953121
42.924999 52.897503
40.750000 52.906395
39.375000 53.209751
40.349998 53.381676
38.950001 53.408195
40.875000 53.427551
39.900002 53.243767
39.525002 53.357029
40.549999 53.390213
41.825001 53.364952
41.400002 53.494949
45.299999 53.292950
50.325001 53.293961
56.599998 53.195744
68.175003 53.173538
77.224998 53.206814
75.375000 53.033180
65.074997 52.955936
53.125000 52.899555
45.474998 52.907890
42.625000 52.913971
42.424999 52.769978
45.049999 52.763836
47.299999 52.759354
48.224998 52.954002
45.974998 53.096066
42.650002 53.150269
37.650002 53.536182
37.875000 53.669403
39.325001 53.766636
42.500000 53.837597
44.400002 53.988346
41.099998 53.850971
39.400002 53.453835
60.099998 53.262947
60.849998 53.123631
59.325001 53.219868
53.375000 53.240623
47.674999 53.107338
48.599998 53.010056
41.775002 52.741142
45.299999 52.792278
60.750000 52.730633
71.474998 52.784599
69.525002 52.922947
59.424999 53.023918
46.849998 53.196571
38.275002 53.322582
33.349998 53.661949
27.549999 53.711716
58.775002 53.649075
65.199997 53.603359
26.475000 53.471031
77.099998 53.522896
70.000000 53.362827
41.099998 53.246006
35.375000 53.111263
32.424999 52.913971
35.700001 53.017365
41.025002 52.548561
45.700001 52.552757
48.549999 52.704262
48.525002 52.765354
47.150002 52.908901
44.974998 52.914707
41.900002 52.968426
41.625000 53.106594
34.424999 53.207432
38.200001 53.281025
50.299999 53.334736
65.775002 53.522373
78.150002 53.461411
71.800003 53.268475
60.349998 53.424541
46.650002 53.439484
78.425003 53.400909
72.425003 53.273800
53.025002 53.230511
40.375000 53.396832
35.525002 53.270817
38.025002 53.228336
43.349998 53.147850
46.900002 53.039623
47.025002 53.010117
46.099998 52.889626
43.849998 52.851162
36.974998 52.872570
51.525002 53.185070
44.849998 53.363659
52.799999 53.592972
35.599998 53.562412
10.375000 53.540112
6.400000 53.672272
17.325001 53.620293
31.075001 53.433918
47.500000 53.396847
59.650002 53.270832
57.724998 53.129387
52.299999 53.125111
57.875000 53.023029
69.525002 53.096966
75.800003 53.051964
70.224998 53.019119
58.099998 53.242546
48.674999 53.158226
42.325001 53.096676
44.450001 53.150711
46.000000 53.140675
45.849998 53.281784
47.974998 53.236340
50.700001 53.203163
49.099998 53.228439
47.075001 53.395317
44.299999 53.368679
44.424999 53.299755
40.500000 53.348412
48.150002 53.087040
43.125000 53.044727
41.299999 53.013840
39.200001 52.892342
41.700001 53.150017
44.799999 53.189648
47.200001 53.119614
48.625000 53.068501
48.224998 52.981712
46.674999 53.017326
47.549999 52.944363
57.424999 52.990074
69.324997 52.973953
70.849998 53.259064
60.875000 53.269230
48.049999 53.326130
40.150002 53.268700
38.349998 53.226788
39.325001 53.344635
42.224998 53.331680
44.125000 53.173794
48.875000 53.207001
51.500000 53.132275
48.974998 53.176693
45.974998 53.110157
44.049999 53.012119
43.525002 53.088997
43.674999 52.897717
44.750000 52.857063
44.799999 52.777924
45.099998 53.017029
43.849998 53.043102
43.974998 53.012661
45.349998 53.039917
44.375000 53.158772
42.575001 53.393951
40.625000 53.417160
39.099998 53.384617
39.099998 53.608261
43.075001 53.623051
54.825001 53.584366
74.275002 53.506657
80.025002 53.400455
73.074997 53.372429
59.575001 53.203526
49.625000 53.080261
44.724998 52.940823
43.599998 53.036961
44.200001 53.008171
45.950001 53.036644
48.525002 52.958462
50.000000 52.802441
48.674999 52.935970
43.700001 53.082901
44.250000 53.140663
42.849998 53.430214
40.900002 53.592060
41.775002 53.561749
33.825001 53.688061
71.724998 53.879208
80.525002 53.919762
76.474998 53.553520
0.125000 53.335697
0.450000 53.473602
6.225000 53.326859
35.275002 53.318718
53.825001 53.263290
59.575001 53.222839
57.275002 53.094360
58.974998 53.099548
68.500000 53.053856
76.375000 53.119461
74.125000 53.167343
63.075001 53.053856
49.025002 52.971024
41.049999 53.108486
50.000000 53.258293
49.625000 53.367626
45.299999 53.496899
39.924999 53.690212
39.349998 53.682861
35.474998 53.726978
38.375000 53.709698
28.575001 53.449688
45.125000 53.358875
38.724998 53.144165
36.174999 53.135895
40.025002 53.278297
44.724998 53.283272
47.299999 53.187943
48.099998 53.068890
48.000000 53.080956
47.525002 52.990807
46.224998 53.073444
43.625000 53.084282
37.750000 53.092194
47.900002 53.295879
56.549999 53.494015
67.699997 53.638630
50.549999 53.744171
74.849998 53.771721
65.449997 53.841305
59.900002 53.743656
46.575001 53.573433
43.375000 53.350231
37.849998 53.286289
61.849998 53.289101
50.575001 53.241676
47.125000 53.207066
52.200001 53.181801
53.424999 53.311798
41.349998 53.258244
50.000000 53.070717
57.950001 53.131767
56.875000 53.324764
47.775002 53.267700
42.200001 53.275539
42.450001 53.231781
39.724998 53.249313
34.825001 53.064198
39.674999 52.978580
46.549999 52.767647
49.250000 52.910580
47.875000 52.915932
44.750000 52.870361
43.424999 52.837105
47.650002 52.713871
62.549999 52.920807
75.824997 52.972874
77.875000 53.010883
67.800003 53.236534
54.849998 53.252789
46.325001 53.215172
43.500000 53.237198
42.974998 53.104839
43.674999 53.156673
45.724998 51.660648
47.825001 51.954205
48.974998 52.217926
48.500000 52.509365
46.500000 52.722069
45.000000 52.728878
43.700001 52.931759
43.250000 52.980869
43.025002 53.115673
43.224998 53.164577
43.700001 53.150795
44.025002 53.338650
44.625000 53.327316
44.900002 53.368526
45.250000 53.349121
44.974998 53.285480
44.875000 53.239033
43.924999 53.007217
44.750000 53.035946
49.025002 53.056911
62.049999 53.220650
73.925003 53.241196
75.449997 53.305668
66.750000 53.352726
54.424999 53.288113
45.575001 53.389393
41.200001 53.364353
40.174999 53.346077
42.049999 53.481174
44.650002 53.431335
47.700001 53.493919
49.450001 53.539597
48.599998 53.424496
45.200001 53.340492
42.849998 53.279186
41.150002 53.234440
40.500000 53.201778
41.375000 53.326382
42.650002 53.318363
44.275002 53.361988
44.275002 53.294872
43.724998 53.245888
43.549999 53.358574
44.099998 53.440819
48.424999 53.401882
61.375000 53.571384
75.650002 53.596134
78.525002 53.614197
69.474998 53.627384
56.674999 53.488567
46.474998 53.535690
40.500000 53.421646
39.275002 53.387894
41.174999 53.412739
43.625000 53.529827
47.150002 53.466846
49.025002 53.470364
47.849998 53.472927
45.275002 53.672718
42.849998 53.769047
41.625000 53.740398
41.724998 53.620533
44.049999 53.730965
45.900002 53.613644
46.549999 53.626980
46.349998 53.537754
46.125000 53.522106
44.825001 53.560173
47.375000 53.439518
59.849998 53.450413
75.324997 53.458370
80.025002 53.612610
71.625000 53.527271
58.974998 53.613415
48.525002 53.577332
43.875000 53.748909
42.025002 53.725704
41.349998 53.708767
43.125000 53.646923
45.674999 53.750221
48.625000 53.825619
48.025002 53.831169
47.025002 53.785740
44.724998 53.802063
42.674999 53.813969
42.349998 53.674225
42.150002 53.621716
41.849998 53.583389
42.650002 53.703854
43.099998 53.742298
43.075001 53.770355
42.599998 53.790836
43.049999 53.904739
43.424999 53.839436
49.625000 53.791767
65.125000 53.806465
79.099998 53.965626
78.824997 53.982830
67.250000 53.995380
54.799999 54.054028
46.700001 54.195789
42.849998 54.101334
41.575001 54.032398
42.400002 53.883121
44.650002 53.774174
47.075001 53.843102
48.400002 53.893406
47.250000 53.979595
44.724998 53.943550
42.575001 53.818279
42.099998 53.924767
41.974998 53.903526
42.174999 53.888027
42.900002 53.926193
43.099998 53.954048
43.049999 53.974377
43.500000 53.989220
43.525002 53.950565
43.625000 53.922359
43.325001 53.901772
43.250000 53.787788
43.575001 53.704597
50.674999 53.792316
65.599998 53.806862
77.724998 53.817474
76.800003 53.825222
65.574997 53.731922
53.049999 53.911217
45.075001 53.844162
41.825001 53.696266
42.400002 53.934673
44.549999 53.861282
47.450001 53.906673
49.700001 53.939804
49.599998 53.914509
47.299999 53.896038
45.450001 53.734123
43.599998 53.764389
42.849998 53.737003
43.049999 53.815964
43.474998 53.873604
44.049999 53.866184
43.825001 53.860775
43.799999 53.757866
43.650002 53.930153
44.000000 53.857979
43.950001 53.854782
44.200001 54.050365
43.950001 54.044678
43.625000 54.040527
46.400002 54.086975
56.849998 54.269310
70.525002 54.204464
74.925003 54.107666
67.699997 54.037018
55.375000 53.985458
45.325001 53.997299
39.875000 54.055424
39.849998 54.097847
43.250000 54.029854
47.575001 53.881264
50.224998 53.921257
50.275002 53.851486
48.500000 53.850044
45.700001 54.046909
43.900002 54.042152
43.125000 54.038685
43.174999 54.036152
43.325001 53.885864
43.500000 53.974091
43.849998 53.840569
43.900002 53.743122
43.450001 53.671997
43.099998 53.768524
42.950001 53.838974
43.275002 53.741959
43.424999 53.671146
43.700001 53.520508
44.450001 53.657959
50.950001 53.659325
62.025002 53.709801
69.000000 53.944553
66.349998 53.868492
56.775002 53.911930
46.625000 53.943642
40.099998 53.867825
38.724998 53.812489
41.349998 53.623669
45.849998 53.584816
49.200001 53.457504
50.174999 53.513020
49.049999 53.454575
47.349998 53.461411
46.125000 53.565346
45.150002 53.740170
44.450001 53.719322
44.700001 53.654625
44.549999 53.557930
44.775002 53.635792
44.825001 53.544186
45.125000 53.576286
45.375000 53.599712
45.849998 53.468372
45.799999 53.471474
45.674999 53.374779
47.025002 53.403168
53.224998 53.423885
63.625000 53.587444
69.150002 53.756298
65.925003 53.582653
56.500000 53.554878
46.825001 53.534611
40.674999 53.668259
39.549999 53.666840
42.599998 53.665806
47.000000 53.813484
50.099998 53.772831
50.625000 53.792641
49.125000 52.372204
47.200001 52.671444
45.625000 52.939323
44.950001 53.085346
44.549999 53.191925
44.799999 53.170753
45.150002 53.353218
45.150002 53.337944
45.474998 53.376282
45.349998 53.503223
45.500000 53.496906
45.525002 53.640739
45.599998 53.646751
47.799999 53.552185
55.875000 53.829521
66.025002 53.883488
70.025002 53.823929
64.974998 53.780453
54.549999 53.798199
45.099998 53.811157
40.275002 53.622700
40.750000 53.584110
44.625000 53.506466
49.325001 53.548756
51.950001 53.480659
51.799999 53.579399
49.424999 53.552509
47.075001 53.532879
45.599998 53.568035
45.200001 53.593693
45.299999 53.513454
45.900002 53.603336
46.224998 53.718414
46.424999 53.703445
46.275002 53.593563
46.099998 53.760761
46.224998 53.734352
51.750000 53.566635
63.799999 53.444233
73.275002 53.255943
72.900002 53.464870
62.750000 53.419437
51.075001 53.336800
43.049999 53.375446
39.799999 53.601566
42.000000 53.618168
46.549999 53.580803
50.349998 53.454571
51.599998 53.609837
